 -4.7302246e-003 -2.7465820e-003  3.0517578e-004
 -3.5095215e-003 -4.1198730e-003 -1.3732910e-003
 -3.9672852e-003  1.0681152e-003 -2.4414063e-003
 -4.5776367e-003 -5.4931641e-003 -3.5095215e-003
 -4.7302246e-003 -1.6784668e-003 -4.2724609e-003
 -4.2724609e-003 -5.6457520e-003 -5.0354004e-003
 -5.3405762e-003 -4.5776367e-003 -4.5776367e-003
 -4.7302246e-003 -2.7465820e-003 -3.8146973e-003
 -3.3569336e-003 -2.2888184e-003 -3.2043457e-003
 -3.3569336e-003 -1.3732910e-003 -3.5095215e-003
 -2.2888184e-003 -3.3569336e-003 -4.1198730e-003
 -2.5939941e-003 -3.3569336e-003 -4.2724609e-003
 -2.1362305e-003 -2.8991699e-003 -4.1198730e-003
 -2.7465820e-003 -2.4414063e-003 -5.3405762e-003
 -2.7465820e-003 -1.5258789e-003 -5.4931641e-003
 -5.0354004e-003 -2.4414063e-003 -4.4250488e-003
 -4.5776367e-003 -4.1198730e-003 -5.6457520e-003
 -3.9672852e-003 -3.8146973e-003 -5.7983398e-003
 -2.8991699e-003 -5.1879883e-003 -6.5612793e-003
 -3.3569336e-003 -3.2043457e-003 -7.1716309e-003
 -3.0517578e-003 -4.1198730e-003 -7.7819824e-003
 -3.3569336e-003 -2.7465820e-003 -6.4086914e-003
 -3.5095215e-003 -3.0517578e-003 -4.8828125e-003
 -3.3569336e-003 -3.6621094e-003 -4.1198730e-003
 -4.7302246e-003 -2.2888184e-003 -3.6621094e-003
 -4.5776367e-003 -3.9672852e-003 -3.6621094e-003
 -4.2724609e-003 -4.5776367e-003 -5.3405762e-003
 -5.0354004e-003 -1.8310547e-003 -3.9672852e-003
 -3.3569336e-003 -3.2043457e-003 -3.6621094e-003
 -2.7465820e-003 -3.0517578e-003 -2.1362305e-003
 -3.5095215e-003 -3.6621094e-003 -2.1362305e-003
 -3.6621094e-003 -5.6457520e-003 -1.6784668e-003
 -3.6621094e-003 -7.1716309e-003 -1.5258789e-003
 -3.9672852e-003 -3.5095215e-003 -1.3732910e-003
 -2.7465820e-003 -3.8146973e-003 -3.9672852e-003
 -3.3569336e-003 -3.9672852e-003 -4.2724609e-003
 -2.7465820e-003 -4.2724609e-003 -2.2888184e-003
 -4.4250488e-003 -4.5776367e-003 -1.8310547e-003
 -4.1198730e-003 -5.0354004e-003 -3.2043457e-003
 -4.1198730e-003 -3.8146973e-003 -4.4250488e-003
 -4.1198730e-003 -4.5776367e-003 -5.7983398e-003
 -4.5776367e-003 -6.5612793e-003 -7.4768066e-003
 -4.5776367e-003 -5.0354004e-003 -7.7819824e-003
 -4.2724609e-003 -3.9672852e-003 -6.4086914e-003
 -4.8828125e-003 -5.6457520e-003 -4.8828125e-003
 -5.1879883e-003 -4.4250488e-003 -4.4250488e-003
 -5.0354004e-003 -2.5939941e-003 -5.0354004e-003
 -4.5776367e-003 -3.2043457e-003 -3.6621094e-003
 -3.3569336e-003 -4.2724609e-003 -4.1198730e-003
 -4.1198730e-003 -4.2724609e-003 -3.2043457e-003
 -4.2724609e-003 -3.9672852e-003 -2.1362305e-003
 -3.9672852e-003 -4.1198730e-003 -2.8991699e-003
 -3.6621094e-003 -3.6621094e-003 -5.3405762e-003
 -4.2724609e-003 -2.5939941e-003 -5.6457520e-003
 -3.5095215e-003 -3.3569336e-003 -6.5612793e-003
 -2.8991699e-003 -3.2043457e-003 -5.4931641e-003
 -2.8991699e-003 -2.4414063e-003 -3.2043457e-003
 -3.2043457e-003 -4.1198730e-003 -4.2724609e-003
 -4.4250488e-003 -4.1198730e-003 -3.6621094e-003
 -4.2724609e-003 -4.5776367e-003 -3.6621094e-003
 -3.0517578e-003 -4.2724609e-003 -4.8828125e-003
 -3.5095215e-003 -4.2724609e-003 -5.3405762e-003
 -4.1198730e-003 -3.2043457e-003 -4.1198730e-003
 -5.3405762e-003 -4.5776367e-003 -3.9672852e-003
 -4.7302246e-003 -5.0354004e-003 -4.2724609e-003
 -4.8828125e-003 -3.3569336e-003 -3.3569336e-003
 -5.0354004e-003 -4.1198730e-003 -3.8146973e-003
 -4.8828125e-003 -2.5939941e-003 -3.3569336e-003
 -3.9672852e-003 -3.6621094e-003 -3.3569336e-003
 -3.5095215e-003 -6.1035156e-004 -1.9836426e-003
 -3.6621094e-003 -4.4250488e-003 -1.0681152e-003
 -3.3569336e-003 -4.5776367e-003 -2.8991699e-003
 -3.6621094e-003 -1.6784668e-003 -2.1362305e-003
 -2.8991699e-003 -3.5095215e-003 -4.5776367e-004
 -3.3569336e-003 -3.5095215e-003 -9.1552734e-004
 -2.8991699e-003 -3.6621094e-003 -3.9672852e-003
 -2.8991699e-003 -2.8991699e-003 -2.5939941e-003
 -3.3569336e-003 -2.5939941e-003 -1.2207031e-003
 -3.3569336e-003 -4.2724609e-003 -2.1362305e-003
 -4.1198730e-003 -1.6784668e-003 -3.5095215e-003
 -3.3569336e-003 -4.8828125e-003 -7.0190430e-003
 -3.5095215e-003 -5.0354004e-003 -1.0681152e-002
 -3.5095215e-003 -4.1198730e-003 -1.0681152e-002
 -4.1198730e-003 -4.4250488e-003 -8.0871582e-003
 -3.9672852e-003 -3.5095215e-003 -4.5776367e-003
 -4.2724609e-003 -1.9836426e-003 -3.5095215e-003
 -4.1198730e-003 -3.6621094e-003 -3.8146973e-003
 -5.0354004e-003 -5.7983398e-003 -5.7983398e-003
 -4.4250488e-003 -6.4086914e-003 -6.5612793e-003
 -4.1198730e-003 -4.5776367e-003 -6.5612793e-003
 -3.8146973e-003 -4.1198730e-003 -6.7138672e-003
 -3.8146973e-003 -2.8991699e-003 -5.3405762e-003
 -3.5095215e-003 -2.5939941e-003 -2.8991699e-003
 -3.2043457e-003 -3.2043457e-003 -3.3569336e-003
 -3.6621094e-003 -4.7302246e-003 -4.1198730e-003
 -3.0517578e-003 -2.2888184e-003 -4.8828125e-003
 -3.5095215e-003 -2.1362305e-003 -4.8828125e-003
 -2.4414063e-003 -2.5939941e-003 -4.1198730e-003
 -2.7465820e-003 -3.9672852e-003 -3.6621094e-003
 -4.5776367e-003 -3.8146973e-003 -3.6621094e-003
 -4.2724609e-003 -2.8991699e-003 -3.3569336e-003
 -3.9672852e-003 -3.0517578e-003 -4.4250488e-003
 -3.9672852e-003 -3.3569336e-003 -5.1879883e-003
 -3.6621094e-003 -4.1198730e-003 -4.5776367e-003
 -4.4250488e-003 -4.2724609e-003 -5.0354004e-003
 -4.7302246e-003 -3.8146973e-003 -4.4250488e-003
 -5.0354004e-003 -3.6621094e-003 -3.0517578e-003
 -5.4931641e-003 -3.2043457e-003 -4.8828125e-003
 -4.8828125e-003 -3.9672852e-003 -4.7302246e-003
 -4.4250488e-003 -3.3569336e-003 -8.0871582e-003
 -4.5776367e-003 -3.9672852e-003 -5.7983398e-003
 -4.2724609e-003 -3.0517578e-003 -4.2724609e-003
 -3.6621094e-003 -3.2043457e-003 -1.8310547e-003
 -3.3569336e-003 -3.2043457e-003 -1.3732910e-003
 -3.8146973e-003 -3.9672852e-003 -1.6784668e-003
 -3.6621094e-003 -5.6457520e-003  4.5776367e-004
 -3.5095215e-003 -2.8991699e-003  3.0517578e-004
 -3.5095215e-003 -1.8310547e-003  3.0517578e-004
 -3.5095215e-003 -1.6784668e-003  9.1552734e-004
 -4.1198730e-003 -2.7465820e-003 -7.6293945e-004
 -4.4250488e-003 -3.9672852e-003 -7.6293945e-004
 -4.1198730e-003 -3.3569336e-003 -1.8310547e-003
 -4.2724609e-003 -3.6621094e-003 -3.8146973e-003
 -3.5095215e-003 -4.1198730e-003 -4.2724609e-003
 -5.0354004e-003 -2.1362305e-003 -4.2724609e-003
 -4.2724609e-003 -2.7465820e-003 -4.7302246e-003
 -4.5776367e-003 -4.5776367e-003 -5.1879883e-003
 -4.4250488e-003 -4.5776367e-003 -3.9672852e-003
 -4.2724609e-003 -5.0354004e-003 -5.0354004e-003
 -3.9672852e-003 -4.2724609e-003 -4.1198730e-003
 -3.9672852e-003 -3.6621094e-003 -4.2724609e-003
 -3.3569336e-003 -3.6621094e-003 -2.1362305e-003
 -3.2043457e-003 -3.2043457e-003 -1.3732910e-003
 -2.8991699e-003 -2.8991699e-003 -1.9836426e-003
 -2.8991699e-003 -3.6621094e-003 -2.7465820e-003
 -3.2043457e-003 -2.8991699e-003 -2.2888184e-003
 -2.7465820e-003 -3.3569336e-003 -3.3569336e-003
 -2.8991699e-003 -2.8991699e-003 -3.3569336e-003
 -3.3569336e-003 -3.9672852e-003 -2.2888184e-003
 -4.1198730e-003 -4.8828125e-003 -3.2043457e-003
 -4.1198730e-003 -3.6621094e-003 -2.5939941e-003
 -4.1198730e-003 -3.9672852e-003 -3.2043457e-003
 -3.6621094e-003 -4.8828125e-003 -5.0354004e-003
 -4.1198730e-003 -4.5776367e-003 -6.4086914e-003
 -3.9672852e-003 -3.5095215e-003 -7.6293945e-003
 -3.2043457e-003 -4.5776367e-003 -7.0190430e-003
 -5.3405762e-003 -4.8828125e-003 -7.4768066e-003
 -4.4250488e-003 -5.0354004e-003 -7.0190430e-003
 -4.4250488e-003 -4.5776367e-003 -7.7819824e-003
 -4.2724609e-003 -4.4250488e-003 -6.8664551e-003
 -3.5095215e-003 -3.8146973e-003 -6.7138672e-003
 -4.7302246e-003 -3.8146973e-003 -5.1879883e-003
 -3.9672852e-003 -4.5776367e-003 -4.4250488e-003
 -3.5095215e-003 -4.7302246e-003 -3.5095215e-003
 -3.0517578e-003 -4.5776367e-003 -4.1198730e-003
 -2.8991699e-003 -4.2724609e-003 -4.5776367e-003
 -3.6621094e-003 -3.8146973e-003 -5.9509277e-003
 -3.9672852e-003 -3.2043457e-003 -4.7302246e-003
 -2.7465820e-003 -4.1198730e-003 -3.0517578e-003
 -2.8991699e-003 -4.8828125e-003 -2.1362305e-003
 -5.1879883e-003 -5.1879883e-003 -3.6621094e-003
 -4.8828125e-003 -4.8828125e-003 -4.7302246e-003
 -4.5776367e-003 -5.0354004e-003 -4.4250488e-003
 -4.1198730e-003 -5.0354004e-003 -5.7983398e-003
 -4.1198730e-003 -4.8828125e-003 -6.5612793e-003
 -4.5776367e-003 -4.7302246e-003 -7.1716309e-003
 -4.4250488e-003 -3.8146973e-003 -6.8664551e-003
 -4.4250488e-003 -4.1198730e-003 -5.1879883e-003
 -4.7302246e-003 -2.7465820e-003 -5.4931641e-003
 -4.5776367e-003 -4.5776367e-003 -4.5776367e-003
 -4.2724609e-003 -3.8146973e-003 -2.8991699e-003
 -3.5095215e-003 -2.1362305e-003 -2.5939941e-003
 -3.5095215e-003 -4.4250488e-003 -4.5776367e-004
 -7.6293945e-004 -5.0354004e-003  0.0000000e+000
  1.1291504e-002 -5.6457520e-003 -1.5258789e-003
  2.5939941e-003 -4.5776367e-003 -1.9836426e-003
 -7.6293945e-003 -3.9672852e-003 -1.8310547e-003
 -1.3122559e-002 -3.5095215e-003 -1.3732910e-003
 -1.1749268e-002 -3.8146973e-003 -7.6293945e-004
 -8.2397461e-003 -1.8310547e-003  7.6293945e-004
 -5.3405762e-003 -2.8991699e-003  1.2207031e-003
 -5.0354004e-003 -3.8146973e-003  1.2207031e-003
 -4.7302246e-003 -2.2888184e-003 -9.1552734e-004
 -4.5776367e-003  4.2724609e-003 -2.2888184e-003
 -4.4250488e-003  4.7302246e-003 -2.2888184e-003
 -3.9672852e-003 -3.2043457e-003 -2.8991699e-003
 -4.2724609e-003 -1.0070801e-002 -3.3569336e-003
 -7.0190430e-003 -1.0833740e-002 -3.3569336e-003
 -4.5776367e-003 -6.8664551e-003 -4.5776367e-003
 -2.1362305e-003 -5.3405762e-003 -7.7819824e-003
 -2.5939941e-003 -3.3569336e-003 -7.6293945e-003
 -7.6293945e-004 -1.8310547e-003 -6.2561035e-003
 -3.2043457e-003 -1.3732910e-003 -2.5939941e-003
 -2.1362305e-003 -1.6784668e-003  7.0190430e-003
  3.0517578e-004 -6.1035156e-004  3.0517578e-003
 -3.0517578e-004 -9.1552734e-004 -5.4931641e-003
 -2.5939941e-003 -3.3569336e-003 -1.3275146e-002
 -2.5939941e-003  7.6293945e-004 -1.3122559e-002
 -1.6784668e-003  1.9836426e-003 -1.1444092e-002
 -1.9836426e-003  3.3569336e-003 -8.0871582e-003
 -2.8991699e-003  1.3732910e-003 -5.0354004e-003
 -5.3405762e-003 -6.5612793e-003 -5.9509277e-003
 -7.1716309e-003 -1.0223389e-002 -4.4250488e-003
 -8.5449219e-003 -1.0833740e-002 -3.5095215e-003
 -5.4931641e-003 -9.1552734e-003 -2.2888184e-003
 -3.5095215e-003 -4.2724609e-003 -1.2207031e-003
 -3.0517578e-003 -4.8828125e-003 -1.6784668e-003
 -3.6621094e-003 -5.6457520e-003 -2.7465820e-003
 -5.0354004e-003 -9.0026855e-003 -2.5939941e-003
 -6.2561035e-003 -3.9672852e-003 -2.2888184e-003
 -7.3242188e-003  1.8310547e-003 -3.5095215e-003
 -5.7983398e-003 -1.2359619e-002 -2.2888184e-003
 -5.9509277e-003 -1.4648438e-002 -2.7465820e-003
 -4.5776367e-003 -9.7656250e-003 -2.7465820e-003
  3.2043457e-003  4.5776367e-004 -1.5258789e-003
  7.4768066e-003  2.4566650e-002 -4.5776367e-004
  1.5258789e-004  3.0670166e-002  9.3078613e-003
 -4.5776367e-004  2.8991699e-003  1.5563965e-002
  3.3569336e-003 -1.8768311e-002  5.6457520e-003
 -1.8310547e-003 -2.4414063e-002 -3.3569336e-003
 -8.3923340e-003 -1.8920898e-002  4.5776367e-004
 -1.1596680e-002 -1.2969971e-002 -6.4086914e-003
 -1.2664795e-002 -8.0871582e-003 -1.9531250e-002
 -1.0223389e-002  1.3580322e-002 -2.5024414e-002
 -7.6293945e-003  4.2724609e-002 -2.0141602e-002
 -6.5612793e-003 -3.0517578e-004 -1.4648438e-002
 -6.5612793e-003 -3.0212402e-002 -1.1901855e-002
 -2.7465820e-003 -3.6315918e-002 -6.1035156e-004
 -9.1552734e-004 -7.0190430e-003  4.2724609e-003
  3.0517578e-004  5.4473877e-002 -6.5612793e-003
  1.6784668e-003  5.0354004e-002 -2.0141602e-002
 -3.3569336e-003 -1.6021729e-002 -2.2430420e-002
 -1.0681152e-002 -4.1656494e-002 -1.8310547e-002
 -1.1749268e-002 -3.8909912e-002 -1.4343262e-002
 -9.9182129e-003 -2.0294189e-002 -1.1901855e-002
 -5.3405762e-003  6.1035156e-004  4.2724609e-003
 -1.5258789e-003 -9.7656250e-003  3.3569336e-003
 -3.2043457e-003 -1.8920898e-002 -2.7465820e-003
 -4.8828125e-003 -1.7547607e-002 -5.3405762e-003
 -4.7302246e-003 -9.6130371e-003  6.8664551e-003
 -2.7465820e-003  4.5776367e-004  4.6539307e-002
 -2.8991699e-003  1.1291504e-002  1.3122559e-002
 -9.1552734e-004  9.7656250e-003 -1.4038086e-002
  3.3569336e-003  3.8146973e-003 -6.7138672e-003
  9.1552734e-003  2.1362305e-003 -3.2043457e-003
  6.8664551e-003  9.1552734e-003 -6.5612793e-003
  1.8310547e-003  8.3923340e-003 -8.8500977e-003
 -5.3405762e-003 -1.5258789e-004 -5.4931641e-003
 -1.1444092e-002 -5.7983398e-003 -2.8991699e-003
 -1.3122559e-002 -7.1716309e-003 -2.1362305e-003
 -1.1901855e-002 -7.0190430e-003 -8.6975098e-003
 -1.1596680e-002 -4.1198730e-003 -1.2512207e-002
 -7.0190430e-003 -2.1362305e-003 -7.0190430e-003
  1.2207031e-003 -2.4414063e-003 -1.6784668e-003
  2.8991699e-003 -1.3732910e-003  2.3498535e-002
  1.9836426e-003  1.0986328e-002  5.0964355e-002
 -2.8991699e-003  2.5939941e-003  2.4261475e-002
 -4.8828125e-003 -7.9345703e-003 -4.1351318e-002
 -4.2724609e-003 -1.0833740e-002 -5.4931641e-002
 -4.2724609e-003 -7.4768066e-003 -4.6844482e-002
 -4.2724609e-003 -2.5939941e-003 -3.2653809e-002
 -3.5095215e-003  1.5258789e-004 -2.6245117e-002
 -2.7465820e-003 -3.6621094e-003 -6.1035156e-004
 -5.0354004e-003 -8.8500977e-003  1.2359619e-002
 -5.6457520e-003 -1.4343262e-002 -4.5776367e-004
 -4.2724609e-003 -4.5776367e-003 -1.9989014e-002
 -3.6621094e-003  1.4648438e-002 -3.3721924e-002
 -3.3569336e-003  7.7819824e-003 -1.9378662e-002
 -4.5776367e-003 -1.3732910e-003 -3.0517578e-003
 -6.4086914e-003 -9.0026855e-003  1.5258789e-003
  1.6784668e-003  3.9672852e-003 -4.5776367e-003
  9.7656250e-003  3.3569336e-003 -9.1552734e-003
  8.6975098e-003 -5.0354004e-003 -7.7819824e-003
  2.1362305e-003 -1.6632080e-002 -6.7138672e-003
 -5.3405762e-003 -2.1209717e-002 -4.1198730e-003
 -9.6130371e-003 -1.5869141e-002 -2.2888184e-003
 -1.1138916e-002 -1.3580322e-002  1.2207031e-003
 -1.1444092e-002 -3.6621094e-003  1.9836426e-003
 -9.9182129e-003 -1.2207031e-003  1.2207031e-003
 -8.2397461e-003  0.0000000e+000  1.6784668e-003
 -5.4931641e-003  2.5939941e-003  2.7465820e-003
 -5.1879883e-003 -6.4086914e-003  3.3569336e-003
 -4.8828125e-003 -1.6479492e-002  5.7983398e-003
  2.2888184e-003 -1.1444092e-002  1.5258789e-002
  4.5776367e-003 -4.7302246e-003  1.0528564e-002
  1.6784668e-003  7.9345703e-003 -9.1552734e-004
 -4.7302246e-003  4.7302246e-003 -1.0223389e-002
 -9.1552734e-003 -7.3242188e-003 -1.2207031e-002
 -6.4086914e-003 -5.3405762e-003 -1.0070801e-002
 -7.1716309e-003 -2.1362305e-003 -9.7656250e-003
 -9.1552734e-003 -1.5258789e-004 -5.0354004e-003
 -1.3732910e-003 -4.5776367e-003  1.5258789e-003
  4.2724609e-003 -1.7700195e-002 -1.8310547e-003
  3.0517578e-003 -5.3405762e-003 -1.6784668e-003
 -1.2207031e-003  9.7656250e-003  3.9672852e-003
 -8.5449219e-003  9.3078613e-003 -1.5258789e-003
 -9.9182129e-003 -1.5258789e-004 -9.4604492e-003
 -2.2888184e-002 -4.5776367e-003 -9.6130371e-003
 -1.4953613e-002 -6.1035156e-003 -8.2397461e-003
  8.8500977e-003 -6.2561035e-003 -1.1291504e-002
  2.7465820e-002 -5.0354004e-003 -1.7242432e-002
  1.6479492e-002 -1.5258789e-004 -1.3885498e-002
  2.1362305e-003  7.3242188e-003  9.3078613e-003
 -8.2397461e-003  2.4414063e-003  1.6479492e-002
 -1.0833740e-002 -1.8310547e-003  6.8664551e-003
 -1.4038086e-002  1.3732910e-003 -5.0354004e-003
 -1.4495850e-002  3.3569336e-003 -5.9509277e-003
 -1.2969971e-002 -5.4931641e-003 -5.9509277e-003
 -9.4604492e-003 -1.2512207e-002 -7.3242188e-003
 -8.3923340e-003 -1.0528564e-002 -1.1596680e-002
 -7.4768066e-003 -2.5939941e-003 -1.2207031e-002
 -5.3405762e-003  1.5869141e-002 -1.0070801e-002
 -3.8146973e-003  3.9672852e-003  1.5258789e-004
 -3.5095215e-003 -1.4343262e-002 -2.1362305e-003
 -2.4414063e-003 -2.6397705e-002 -8.2397461e-003
 -3.0517578e-003 -2.6855469e-002 -1.1444092e-002
 -2.4414063e-003 -1.6784668e-002 -7.0190430e-003
 -1.3732910e-003 -6.7138672e-003 -5.6457520e-003
 -9.1552734e-004  2.9907227e-002 -4.1198730e-003
 -1.5258789e-003  2.9296875e-002 -2.1362305e-003
 -1.3732910e-003 -3.9672852e-003  1.5258789e-004
 -9.1552734e-004 -2.4719238e-002  1.5258789e-003
 -1.3732910e-003 -2.2888184e-002  1.6784668e-003
 -1.5258789e-003 -1.0986328e-002  7.1716309e-003
 -2.4414063e-003  6.7138672e-003  9.9182129e-003
 -3.3569336e-003  1.3732910e-002  8.8500977e-003
 -4.1198730e-003  7.4768066e-003  1.1444092e-002
 -2.8991699e-003 -7.6293945e-003  7.3242188e-003
 -2.5939941e-003 -1.1444092e-002 -1.3732910e-003
 -3.0517578e-003  1.2207031e-002 -1.1444092e-002
 -3.3569336e-003  1.5869141e-002 -1.3275146e-002
 -4.1198730e-003  1.0833740e-002 -9.9182129e-003
 -8.8500977e-003 -1.0681152e-003 -1.2664795e-002
 -1.1596680e-002 -1.7242432e-002 -6.2561035e-003
 -6.4086914e-003 -2.5939941e-002  5.7983398e-003
  5.4931641e-003 -3.3874512e-002 -3.0517578e-003
  1.1596680e-002 -3.2043457e-002 -6.7138672e-003
  7.4768066e-003 -2.2583008e-002  1.4343262e-002
 -4.5776367e-004 -1.2359619e-002  2.1514893e-002
 -1.0223389e-002  1.5411377e-002 -6.1035156e-003
 -1.2512207e-002  1.4801025e-002 -3.0822754e-002
 -1.1138916e-002 -7.0190430e-003 -3.4027100e-002
 -8.2397461e-003 -2.7770996e-002 -1.8157959e-002
 -5.3405762e-003 -4.2724609e-003  8.8500977e-003
 -4.1198730e-003  6.1035156e-003  3.2501221e-002
 -5.7983398e-003  2.0294189e-002  8.8500977e-003
 -6.8664551e-003  5.0048828e-002 -2.2888184e-002
 -5.6457520e-003  5.2795410e-002 -3.3416748e-002
 -4.2724609e-003  9.4604492e-003 -1.3885498e-002
 -3.6621094e-003 -3.7841797e-002 -3.3569336e-003
 -3.9672852e-003 -4.8675537e-002 -3.6621094e-003
 -1.5258789e-003 -4.2724609e-002  7.4768066e-003
 -3.0517578e-003 -2.4108887e-002  1.0070801e-002
 -4.2724609e-003 -1.6326904e-002  1.9836426e-003
 -5.0354004e-003 -7.6293945e-003 -9.0026855e-003
 -4.4250488e-003  1.6784668e-003 -7.9345703e-003
 -4.1198730e-003  1.5869141e-002 -9.6130371e-003
 -3.2043457e-003  2.0904541e-002 -1.2359619e-002
 -7.6293945e-004  7.6293945e-003 -1.2969971e-002
  3.0517578e-004 -5.0354004e-003 -9.7656250e-003
 -1.2207031e-003 -9.0026855e-003 -5.3405762e-003
 -2.8991699e-003 -8.3923340e-003  9.3078613e-003
 -3.8146973e-003  0.0000000e+000  2.2735596e-002
 -2.8991699e-003  2.2125244e-002  1.0681152e-002
 -2.5939941e-003  1.7852783e-002 -9.0026855e-003
 -3.5095215e-003  2.8228760e-002 -1.7395020e-002
 -5.1879883e-003  3.8146973e-002 -1.8310547e-003
 -4.5776367e-003  1.0070801e-002  1.1749268e-002
 -3.9672852e-003 -2.1972656e-002  1.1749268e-002
 -4.2724609e-003 -3.5400391e-002  1.5258789e-003
 -5.1879883e-003 -3.4332275e-002 -7.6293945e-003
 -6.1035156e-003 -2.5329590e-002 -1.1444092e-002
 -1.0070801e-002 -1.5106201e-002 -1.2969971e-002
 -1.0223389e-002 -9.1552734e-003 -1.1444092e-002
 -7.0190430e-003 -7.1716309e-003 -3.3569336e-003
  1.8310547e-003 -2.8991699e-003 -9.1552734e-004
  6.2561035e-003  1.9836426e-003 -4.5776367e-004
  1.2207031e-003  1.3427734e-002 -2.1362305e-003
 -5.6457520e-003  1.3275146e-002 -1.8310547e-003
 -8.2397461e-003  6.7138672e-003  3.0517578e-004
 -7.0190430e-003 -4.2724609e-003  1.6784668e-003
 -5.1879883e-003 -6.5612793e-003  2.1362305e-003
 -3.3569336e-003 -7.3242188e-003  1.0681152e-003
 -2.2888184e-003 -8.0871582e-003 -1.9836426e-003
 -7.0190430e-003 -7.7819824e-003 -5.0354004e-003
 -1.1444092e-002 -7.0190430e-003 -4.2724609e-003
 -1.1138916e-002 -3.8146973e-003 -3.2043457e-003
 -1.0681152e-002  1.5258789e-004 -1.5258789e-003
 -5.6457520e-003  1.5258789e-004 -3.0517578e-004
  3.0517578e-004 -3.0517578e-003  0.0000000e+000
  8.3923340e-003 -7.4768066e-003 -7.6293945e-004
  1.4953613e-002 -2.1362305e-003 -2.1362305e-003
  1.4953613e-002 -2.1362305e-003 -4.1198730e-003
  5.0354004e-003 -7.0190430e-003 -5.1879883e-003
 -1.0223389e-002 -8.2397461e-003 -5.0354004e-003
 -1.7395020e-002 -2.5939941e-003 -5.4931641e-003
 -1.5411377e-002 -4.5776367e-003 -7.0190430e-003
 -8.2397461e-003  8.8500977e-003 -6.4086914e-003
 -5.1879883e-003  2.4871826e-002 -6.1035156e-003
 -6.1035156e-003  1.1138916e-002 -8.8500977e-003
 -7.6293945e-003 -1.1901855e-002 -1.8768311e-002
 -1.5258789e-003 -2.8686523e-002 -1.4343262e-002
  3.2043457e-003 -2.3345947e-002  7.1716309e-003
  3.5095215e-003 -1.3122559e-002  3.0822754e-002
 -4.5776367e-004 -8.8500977e-003  2.3193359e-002
 -7.9345703e-003 -9.9182129e-003  4.4250488e-003
 -1.0528564e-002 -1.3885498e-002 -1.0833740e-002
 -5.9509277e-003 -9.9182129e-003 -1.6784668e-002
  1.2207031e-003 -1.2207031e-002 -1.6326904e-002
  4.2724609e-003 -1.1291504e-002 -1.2664795e-002
 -2.7465820e-003 -3.3569336e-003 -1.3580322e-002
 -1.3885498e-002  7.0190430e-003 -1.3885498e-002
 -2.5177002e-002  1.3580322e-002 -1.4953613e-002
 -2.8991699e-002  1.2817383e-002 -1.7852783e-002
 -1.1596680e-002  3.9672852e-003 -2.0141602e-002
  1.7852783e-002 -4.2724609e-003 -7.3242188e-003
  3.0364990e-002 -9.6130371e-003  2.0446777e-002
  1.8615723e-002 -1.1444092e-002  4.7149658e-002
  1.0070801e-002 -7.7819824e-003  5.7678223e-002
  1.2054443e-002 -5.3405762e-003  3.4942627e-002
  2.2888184e-003 -7.3242188e-003 -7.1716309e-003
 -1.8463135e-002 -8.0871582e-003 -3.5095215e-002
 -2.8533936e-002 -3.5095215e-003 -3.5247803e-002
 -2.2125244e-002  1.3732910e-003 -2.4566650e-002
 -1.3427734e-002  7.1716309e-003 -2.4108887e-002
 -1.1596680e-002  6.8664551e-003 -3.5858154e-002
 -1.2359619e-002 -6.5612793e-003 -3.8146973e-002
 -1.1444092e-002 -1.4343262e-002 -7.7819824e-003
 -9.0026855e-003 -7.6293945e-003  1.9683838e-002
 -8.3923340e-003  5.6457520e-003  8.3923340e-003
 -1.1291504e-002  1.0223389e-002 -1.8157959e-002
 -5.0354004e-003  1.8310547e-003 -1.0070801e-002
  0.0000000e+000 -4.4250488e-003  1.6479492e-002
 -1.0681152e-003 -1.0223389e-002  1.6784668e-002
  1.3732910e-002 -1.7547607e-002 -2.8991699e-003
  3.1585693e-002 -1.3732910e-002 -9.4604492e-003
  2.8228760e-002 -1.0223389e-002 -1.5258789e-003
 -4.1198730e-003 -6.2561035e-003  1.9836426e-003
 -2.2735596e-002  3.0517578e-004  1.5258789e-003
 -2.2277832e-002  2.1362305e-003  6.5612793e-003
 -1.6479492e-002 -1.3732910e-003  9.1552734e-004
 -1.2359619e-002 -8.2397461e-003 -1.8615723e-002
 -9.1552734e-003 -1.2969971e-002 -4.7302246e-002
 -2.7465820e-003 -9.1552734e-004 -5.1727295e-002
  4.2724609e-003  1.8157959e-002 -2.8991699e-003
  8.2397461e-003  3.0975342e-002  5.8898926e-002
  1.8310547e-002  6.8664551e-003  5.4626465e-002
  2.0141602e-002 -2.1972656e-002 -5.7983398e-003
 -1.5258789e-004 -2.6550293e-002 -5.4321289e-002
 -2.1362305e-002 -3.6621094e-003 -5.3558350e-002
 -2.1514893e-002  2.1972656e-002 -2.0904541e-002
 -1.4495850e-002  2.9602051e-002  1.4801025e-002
 -3.5095215e-003  1.7395020e-002  2.2277832e-002
  6.1035156e-003  6.1035156e-004  1.0223389e-002
  7.9345703e-003 -5.6457520e-003 -1.3885498e-002
  5.6457520e-003 -1.1901855e-002 -3.7689209e-002
  2.1362305e-003 -2.4414063e-002 -5.3100586e-002
 -1.0833740e-002 -3.4637451e-002 -3.8604736e-002
 -1.7547607e-002 -3.6621094e-002  5.4931641e-003
 -1.9836426e-002 -2.2888184e-002  5.2947998e-002
 -2.0751953e-002 -1.6632080e-002  6.6223145e-002
 -1.6021729e-002 -1.2817383e-002  3.2196045e-002
 -4.1198730e-003 -5.6457520e-003  3.0517578e-004
 -2.8991699e-003 -9.1552734e-004  5.4931641e-003
 -7.3242188e-003  6.8664551e-003  2.9144287e-002
 -1.0375977e-002  1.0833740e-002  2.7770996e-002
 -3.9672852e-003  8.0871582e-003 -1.1138916e-002
  1.5563965e-002 -7.6293945e-003 -4.0740967e-002
  1.7700195e-002 -1.8005371e-002 -3.4179688e-002
 -5.0354004e-003 -5.7983398e-003  1.5258789e-003
 -2.8533936e-002  2.7160645e-002  2.6855469e-002
 -2.3345947e-002  3.5095215e-002  4.4250488e-003
  3.0517578e-004  1.2359619e-002 -3.4484863e-002
  1.3427734e-002 -7.4768066e-003 -4.3640137e-002
  6.2561035e-003 -4.8828125e-003 -3.4484863e-002
 -1.0833740e-002 -2.2888184e-003 -2.7770996e-002
 -2.2888184e-002 -7.9345703e-003 -2.9296875e-002
 -2.0446777e-002 -1.3427734e-002 -3.2653809e-002
 -1.0833740e-002 -5.0354004e-003 -2.8076172e-002
  1.2207031e-002  2.8991699e-003 -7.6293945e-004
  5.2185059e-002 -5.4931641e-003  2.4108887e-002
  5.9356689e-002 -1.0681152e-002  3.0059814e-002
  2.7465820e-002 -1.4343262e-002  1.6632080e-002
 -2.5329590e-002 -7.7819824e-003 -8.2397461e-003
 -4.4860840e-002  1.3732910e-002 -3.5095215e-002
 -2.4871826e-002  1.8157959e-002 -4.4708252e-002
 -9.9182129e-003 -1.8310547e-003 -1.0681152e-002
 -1.8615723e-002 -2.2277832e-002  4.2572021e-002
 -3.6315918e-002 -3.1280518e-002  6.1187744e-002
 -3.5247803e-002 -2.8839111e-002  2.8839111e-002
 -2.2888184e-003 -1.9989014e-002 -1.8005371e-002
  2.8839111e-002 -1.6326904e-002 -3.4027100e-002
  1.6784668e-002 -1.0528564e-002 -3.3874512e-002
 -7.1716309e-003  1.2207031e-003 -2.9907227e-002
 -4.5776367e-003  3.1890869e-002 -1.9226074e-002
  9.7656250e-003  4.8980713e-002 -4.5776367e-003
  1.6784668e-003  2.9296875e-002  9.9182129e-003
 -1.2817383e-002 -1.1444092e-002  1.0528564e-002
 -9.4604492e-003 -4.4555664e-002 -6.1035156e-004
  6.8664551e-003 -3.4637451e-002 -1.1444092e-002
  3.2043457e-003  7.1716309e-003 -3.9672852e-003
 -1.6479492e-002  4.3487549e-002  2.6092529e-002
 -1.9378662e-002  3.8604736e-002  6.1035156e-002
 -1.3732910e-002 -1.5258789e-004  4.2266846e-002
 -8.5449219e-003 -2.9602051e-002 -1.7395020e-002
 -9.0026855e-003 -9.0026855e-003 -5.7830811e-002
 -8.2397461e-003  2.8991699e-002 -4.3487549e-002
 -5.1879883e-003  1.9378662e-002 -7.1716309e-003
  1.5106201e-002 -1.7242432e-002  2.1667480e-002
  3.5095215e-002 -6.1492920e-002  9.7656250e-003
  3.0517578e-002 -7.9345703e-002  1.3732910e-002
  1.6326904e-002 -4.9896240e-002  4.5928955e-002
  8.2397461e-003  3.6621094e-003  5.2795410e-002
 -7.7819824e-003  3.4027100e-002  4.4250488e-003
 -1.6326904e-002  1.2359619e-002 -6.4392090e-002
 -2.1514893e-002 -1.9683838e-002 -9.0484619e-002
 -3.0059814e-002 -3.6315918e-002 -6.2713623e-002
 -3.4027100e-002 -4.7607422e-002 -1.6174316e-002
 -2.3498535e-002 -2.2277832e-002  1.9836426e-002
 -5.3405762e-003  2.2888184e-002  5.7983398e-003
 -3.2043457e-003  5.7067871e-002 -2.7770996e-002
 -1.3580322e-002  5.8135986e-002 -1.6784668e-003
 -3.6621094e-003  2.3040771e-002  7.2937012e-002
  1.2969971e-002 -1.5563965e-002  9.2620850e-002
  1.0528564e-002 -1.7395020e-002  1.9683838e-002
  4.4250488e-003 -4.7302246e-003 -5.1116943e-002
  9.4604492e-003  6.7138672e-003 -6.2103271e-002
  1.3732910e-003 -7.6293945e-004 -4.6691895e-002
 -3.5400391e-002 -1.9836426e-002 -3.8757324e-002
 -5.3710938e-002 -2.6092529e-002 -3.8757324e-002
 -3.4179688e-002 -1.9226074e-002 -2.1972656e-002
  5.3405762e-003 -1.7547607e-002  7.3242188e-003
  1.7395020e-002 -1.8768311e-002  3.3264160e-002
  1.5258789e-002 -1.4953613e-002  3.3874512e-002
  4.3487549e-002 -1.6784668e-003  1.6632080e-002
  7.7667236e-002  1.6326904e-002  7.6293945e-004
  7.1868896e-002  4.4097900e-002 -1.0681152e-002
 -1.2664795e-002  6.9122314e-002 -2.4108887e-002
 -8.8653564e-002  5.5389404e-002 -2.9754639e-002
 -5.2795410e-002  1.3732910e-002 -3.4637451e-002
  2.1972656e-002 -4.8980713e-002 -2.6092529e-002
  4.2724609e-002 -5.2490234e-002 -7.4768066e-003
 -5.3405762e-003 -4.6844482e-002  2.3498535e-002
 -3.5400391e-002 -2.7313232e-002  4.3487549e-002
 -3.5095215e-002 -1.1138916e-002  5.1879883e-002
 -2.4719238e-002 -4.2724609e-003  5.8593750e-002
 -1.9836426e-002 -2.2888184e-003  3.2501221e-002
 -1.0986328e-002  3.3569336e-003 -1.9226074e-002
 -1.7395020e-002  2.6397705e-002 -6.3171387e-002
 -2.8686523e-002  3.7384033e-002 -6.3171387e-002
 -1.9226074e-002  7.0190430e-003 -2.3651123e-002
  2.3498535e-002 -4.0283203e-002  1.9836426e-002
  5.0659180e-002 -4.1809082e-002  1.9683838e-002
  2.8381348e-002  3.0517578e-003 -8.3923340e-003
 -1.4953613e-002  3.0822754e-002 -2.1667480e-002
 -3.9520264e-002  8.0871582e-003 -7.3242188e-003
 -1.8920898e-002  3.5095215e-003  4.1198730e-003
  1.4495850e-002  1.8005371e-002 -9.0026855e-003
  1.3732910e-002  9.4604492e-003 -4.8065186e-002
 -1.6784668e-002 -2.5329590e-002 -6.0272217e-002
 -3.4637451e-002 -4.9438477e-002 -2.2125244e-002
 -3.1127930e-002 -5.1422119e-002  2.1667480e-002
 -8.2397461e-003 -3.9672852e-002  4.1503906e-002
  6.8664551e-003 -2.7313232e-002  3.2043457e-002
 -3.0517578e-003 -7.1716309e-003 -7.6293945e-004
  1.5258789e-003  1.1444092e-002 -2.3193359e-002
  2.3956299e-002  1.4495850e-002 -2.4261475e-002
  3.5095215e-002  2.5024414e-002 -3.2196045e-002
  4.6234131e-002  4.7912598e-002 -5.2642822e-002
  6.2561035e-002  3.8909912e-002 -4.7607422e-002
  2.7160645e-002 -7.9345703e-003 -3.8146973e-003
 -3.4637451e-002 -4.6844482e-002  3.3874512e-002
 -6.2866211e-002 -4.1198730e-002  4.4555664e-002
 -4.9591064e-002  8.0871582e-003  3.9215088e-002
 -2.4566650e-002  4.1351318e-002  3.3721924e-002
 -7.0190430e-003  2.3651123e-002  2.5329590e-002
 -1.0070801e-002 -1.5411377e-002  1.1749268e-002
 -2.1057129e-002 -3.0364990e-002 -2.3803711e-002
 -2.2430420e-002 -1.8920898e-002 -5.5236816e-002
 -7.6293945e-003 -2.5939941e-003 -5.2185059e-002
  5.9509277e-003  1.1749268e-002 -1.2817383e-002
  9.3078613e-003  2.0904541e-002  2.4261475e-002
 -2.4414063e-003  1.7089844e-002  2.8533936e-002
 -1.3885498e-002 -3.9672852e-003  4.8828125e-003
 -1.2359619e-002 -2.7618408e-002 -9.9182129e-003
  6.5612793e-003 -3.2043457e-002 -2.1514893e-002
  9.1552734e-003 -2.7313232e-002 -4.4097900e-002
 -8.0871582e-003 -1.8310547e-002 -3.1738281e-002
 -1.0833740e-002 -1.2207031e-002  2.1057129e-002
 -1.0070801e-002 -4.5776367e-003  5.3405762e-002
 -2.8686523e-002  1.0375977e-002  1.3732910e-002
 -1.4801025e-002  2.0751953e-002 -4.0740967e-002
  3.9520264e-002  7.7819824e-003 -3.7384033e-002
  4.5928955e-002 -1.7395020e-002 -4.1198730e-003
  4.9743652e-002 -2.9602051e-002  4.0588379e-002
  6.3171387e-002 -2.8991699e-002  6.9732666e-002
  2.7465820e-003 -2.4566650e-002  6.0424805e-002
 -6.4392090e-002 -1.1138916e-002  4.7302246e-003
 -6.8664551e-002  2.7618408e-002 -5.0354004e-002
 -3.2196045e-002  6.6528320e-002 -5.5236816e-002
  4.2724609e-003  6.2866211e-002 -3.4942627e-002
  2.0751953e-002  1.1596680e-002 -2.6397705e-002
  1.2512207e-002 -2.2888184e-002 -3.2806396e-002
 -9.7656250e-003 -9.9182129e-003 -5.4473877e-002
 -2.3040771e-002  1.8157959e-002 -5.6610107e-002
 -2.2277832e-002  7.7819824e-003  1.1291504e-002
 -1.4343262e-002 -2.1209717e-002  1.0940552e-001
 -9.0026855e-003 -4.0130615e-002  1.3595581e-001
 -5.4931641e-003 -3.8146973e-002  6.6223145e-002
  9.1552734e-003 -2.6397705e-002 -2.5329590e-002
  1.4190674e-002 -3.2043457e-002 -6.8054199e-002
  3.0517578e-004 -3.6010742e-002 -5.3100586e-002
 -9.6130371e-003 -6.4086914e-003 -1.0223389e-002
  7.1716309e-003  3.2043457e-002  1.2207031e-003
  1.6174316e-002  5.4473877e-002 -2.6855469e-002
 -3.0517578e-003  3.2501221e-002 -4.8522949e-002
 -2.3193359e-002 -4.1198730e-003 -3.9520264e-002
 -2.9602051e-002 -3.1738281e-002 -1.6021729e-002
 -3.8757324e-002 -4.9285889e-002 -5.3405762e-003
 -3.0364990e-002 -5.0201416e-002 -2.2735596e-002
  1.9836426e-003 -1.8615723e-002 -3.1127930e-002
  3.1280518e-002  1.7395020e-002 -7.7819824e-003
  2.1209717e-002  1.6326904e-002  4.5623779e-002
  1.0681152e-003 -9.0026855e-003  7.9803467e-002
 -2.1362305e-003  3.2043457e-003  5.4931641e-002
  2.8991699e-003  4.5776367e-002 -5.3405762e-003
 -4.1198730e-003  6.1340332e-002 -5.2795410e-002
 -1.8005371e-002  3.1433105e-002 -5.2185059e-002
 -2.5939941e-002 -7.7819824e-003  6.1035156e-004
 -2.1209717e-002 -3.3416748e-002  4.8828125e-002
 -1.4495850e-002 -4.6386719e-002  4.6691895e-002
 -1.0528564e-002 -4.8522949e-002 -7.1716309e-003
 -9.3078613e-003 -2.5634766e-002 -4.0130615e-002
 -8.3923340e-003  3.3569336e-003 -3.9825439e-002
  4.2724609e-003  1.2359619e-002 -3.3111572e-002
  2.5482178e-002 -3.3569336e-003 -3.0975342e-002
  1.3580322e-002 -1.2664795e-002 -1.3885498e-002
 -2.2888184e-002 -6.5612793e-003  2.3803711e-002
 -1.7242432e-002  2.7465820e-003  6.1035156e-002
  2.2735596e-002 -4.2724609e-003  5.8898926e-002
  4.5166016e-002 -1.1444092e-002  1.8463135e-002
  1.8615723e-002 -1.3885498e-002 -1.3885498e-002
 -3.5095215e-003 -1.0833740e-002 -1.3580322e-002
  1.3732910e-003 -9.4604492e-003  7.3242188e-003
 -6.4086914e-003 -1.3427734e-002  1.4190674e-002
 -1.6326904e-002 -1.9836426e-002 -1.2969971e-002
 -2.2277832e-002 -1.5258789e-004 -3.6010742e-002
 -1.8310547e-002  4.3945313e-002 -3.6010742e-002
 -1.1901855e-002  6.5612793e-002 -2.7160645e-002
 -8.3923340e-003  2.9296875e-002 -1.7547607e-002
 -6.7138672e-003 -9.6130371e-003 -2.4414063e-003
 -7.9345703e-003 -1.9836426e-002  3.5095215e-003
 -7.3242188e-003 -1.4801025e-002 -3.3569336e-003
 -2.2888184e-003 -1.2512207e-002 -1.3122559e-002
 -5.7983398e-003 -9.6130371e-003 -1.6937256e-002
 -2.6702881e-002 -7.3242188e-003 -1.3122559e-002
 -2.2888184e-002 -7.6293945e-003 -6.4086914e-003
  1.8005371e-002 -9.0026855e-003 -5.3405762e-003
  4.4097900e-002 -7.1716309e-003 -7.9345703e-003
  1.5716553e-002 -9.1552734e-003 -5.0354004e-003
 -1.6479492e-002 -9.0026855e-003  1.1291504e-002
 -1.7242432e-002 -7.0190430e-003  2.1972656e-002
 -9.9182129e-003 -7.7819824e-003  1.4190674e-002
 -6.5612793e-003 -1.1596680e-002 -8.2397461e-003
 -5.1879883e-003 -1.4038086e-002 -1.1444092e-002
 -4.5776367e-003 -8.2397461e-003  3.9672852e-003
 -4.5776367e-003  4.5776367e-003  1.1138916e-002
 -3.6621094e-003  1.3275146e-002 -1.5258789e-003
 -3.5095215e-003  1.4038086e-002 -1.7700195e-002
 -3.3569336e-003  6.5612793e-003 -1.6174316e-002
 -3.3569336e-003  0.0000000e+000 -1.0375977e-002
 -3.9672852e-003 -4.1198730e-003 -6.7138672e-003
 -4.8828125e-003 -6.4086914e-003 -3.0517578e-003
 -4.2724609e-003 -5.3405762e-003  1.0681152e-003
 -3.3569336e-003 -4.4250488e-003  6.1035156e-003
 -3.3569336e-003 -5.3405762e-003  3.2043457e-003
 -2.8991699e-003 -5.0354004e-003 -6.5612793e-003
 -2.1362305e-003 -5.7983398e-003 -1.0223389e-002
 -3.2043457e-003 -6.5612793e-003 -7.1716309e-003
 -5.0354004e-003 -6.5612793e-003 -5.0354004e-003
 -5.7983398e-003 -6.1035156e-003 -4.2724609e-003
 -4.8828125e-003 -5.1879883e-003 -3.5095215e-003
 -4.4250488e-003 -8.5449219e-003 -4.7302246e-003
 -3.5095215e-003 -6.5612793e-003 -4.5776367e-003
 -2.5939941e-003 -3.0517578e-003 -3.5095215e-003
 -3.5095215e-003 -4.5776367e-004 -2.4414063e-003
 -3.9672852e-003 -9.1552734e-004 -7.6293945e-004
 -3.5095215e-003 -3.3569336e-003 -2.1362305e-003
 -2.5939941e-003 -3.6621094e-003 -3.2043457e-003
 -4.1198730e-003 -3.3569336e-003 -3.2043457e-003
 -5.7983398e-003 -3.3569336e-003 -2.8991699e-003
 -5.3405762e-003 -4.2724609e-003 -3.3569336e-003
 -7.0190430e-003 -4.7302246e-003 -3.9672852e-003
 -6.4086914e-003 -3.2043457e-003 -4.5776367e-003
 -4.1198730e-003 -4.1198730e-003 -4.1198730e-003
 -1.6784668e-003 -3.6621094e-003 -3.5095215e-003
 -1.6784668e-003 -5.0354004e-003 -3.9672852e-003
 -3.2043457e-003 -3.9672852e-003 -3.8146973e-003
 -3.5095215e-003 -5.1879883e-003 -2.8991699e-003
 -3.2043457e-003 -5.1879883e-003 -3.2043457e-003
 -3.6621094e-003 -3.6621094e-003 -4.1198730e-003
 -4.1198730e-003 -6.5612793e-003 -4.7302246e-003
 -3.3569336e-003 -4.7302246e-003 -7.1716309e-003
 -1.8310547e-003 -4.5776367e-003 -7.6293945e-003
 -1.8310547e-003 -4.7302246e-003 -4.8828125e-003
 -2.7465820e-003 -5.0354004e-003 -4.7302246e-003
 -3.2043457e-003 -4.7302246e-003 -3.6621094e-003
 -4.1198730e-003 -3.2043457e-003 -3.6621094e-003
 -3.5095215e-003 -3.2043457e-003 -5.1879883e-003
 -4.5776367e-003 -3.3569336e-003 -5.6457520e-003
 -3.3569336e-003 -3.0517578e-003 -5.3405762e-003
 -3.3569336e-003 -2.7465820e-003 -5.0354004e-003
 -3.6621094e-003  4.4250488e-003 -4.5776367e-003
 -3.5095215e-003 -3.9672852e-003 -3.3569336e-003
 -4.1198730e-003 -4.5776367e-003 -3.3569336e-003
 -4.4250488e-003 -4.8828125e-003 -3.3569336e-003
 -4.2724609e-003 -5.0354004e-003 -4.4250488e-003
 -4.5776367e-003 -4.8828125e-003 -4.4250488e-003
 -3.2043457e-003 -4.5776367e-003 -2.8991699e-003
 -3.8146973e-003 -4.1198730e-003 -1.9836426e-003
 -4.2724609e-003 -3.8146973e-003 -3.6621094e-003
 -4.2724609e-003 -5.7983398e-003 -4.8828125e-003
 -5.3405762e-003 -5.3405762e-003 -6.4086914e-003
 -5.3405762e-003 -3.8146973e-003 -6.5612793e-003
 -5.3405762e-003 -3.2043457e-003 -5.9509277e-003
 -4.2724609e-003 -2.7465820e-003 -4.8828125e-003
 -4.1198730e-003 -2.5939941e-003 -6.5612793e-003
 -4.1198730e-003 -5.3405762e-003 -6.1035156e-003
 -3.6621094e-003 -1.2207031e-003 -5.3405762e-003
 -3.9672852e-003 -1.6784668e-003 -3.6621094e-003
 -4.2724609e-003 -2.1362305e-003 -3.8146973e-003
 -3.9672852e-003 -1.9836426e-003 -2.8991699e-003
 -4.1198730e-003 -5.7983398e-003 -4.2724609e-003
 -4.2724609e-003 -3.5095215e-003 -4.4250488e-003
 -4.4250488e-003 -2.8991699e-003 -5.3405762e-003
 -3.3569336e-003 -2.2888184e-003 -5.3405762e-003
 -3.3569336e-003 -1.2207031e-003 -5.3405762e-003
 -4.7302246e-003 -1.8310547e-003 -5.1879883e-003
 -4.7302246e-003 -3.2043457e-003 -5.4931641e-003
 -4.1198730e-003 -6.1035156e-004 -5.3405762e-003
 -3.5095215e-003 -2.5939941e-003 -5.3405762e-003
 -4.1198730e-003 -5.7983398e-003 -5.9509277e-003
 -4.2724609e-003 -3.9672852e-003 -5.6457520e-003
 -5.0354004e-003 -4.7302246e-003 -5.7983398e-003
 -4.5776367e-003 -4.7302246e-003 -3.8146973e-003
 -4.5776367e-003 -4.1198730e-003 -3.5095215e-003
 -3.9672852e-003 -4.1198730e-003 -3.8146973e-003
 -4.2724609e-003 -4.1198730e-003 -3.8146973e-003
 -3.6621094e-003 -4.1198730e-003 -3.5095215e-003
 -3.9672852e-003 -4.1198730e-003 -1.6784668e-003
 -3.6621094e-003 -3.2043457e-003 -6.1035156e-004
 -3.2043457e-003 -3.5095215e-003  0.0000000e+000
 -2.5939941e-003 -3.3569336e-003 -9.1552734e-004
 -2.4414063e-003 -3.2043457e-003 -7.6293945e-004
 -2.7465820e-003 -4.1198730e-003 -2.2888184e-003
 -3.3569336e-003 -4.2724609e-003 -3.3569336e-003
 -2.7465820e-003 -4.1198730e-003 -3.6621094e-003
 -2.8991699e-003 -3.3569336e-003 -3.2043457e-003
 -3.3569336e-003 -4.1198730e-003 -1.6784668e-003
 -4.8828125e-003 -3.6621094e-003 -3.2043457e-003
 -2.2888184e-003 -3.9672852e-003 -3.2043457e-003
 -4.1198730e-003 -2.8991699e-003 -3.9672852e-003
 -4.7302246e-003 -3.8146973e-003 -5.0354004e-003
 -5.3405762e-003 -4.2724609e-003 -6.4086914e-003
 -5.6457520e-003 -4.2724609e-003 -5.6457520e-003
 -5.0354004e-003 -2.8991699e-003 -5.6457520e-003
 -6.1035156e-003 -2.5939941e-003 -5.1879883e-003
 -3.9672852e-003 -2.7465820e-003 -2.5939941e-003
 -3.3569336e-003 -3.5095215e-003 -1.6784668e-003
 -2.4414063e-003 -2.8991699e-003 -1.3732910e-003
 -3.5095215e-003 -2.4414063e-003 -3.0517578e-004
 -3.6621094e-003 -1.8310547e-003 -3.9672852e-003
 -2.5939941e-003 -2.7465820e-003 -4.7302246e-003
 -3.0517578e-003 -4.1198730e-003 -3.3569336e-003
 -3.9672852e-003 -2.4414063e-003 -2.2888184e-003
 -4.5776367e-003 -2.8991699e-003 -3.3569336e-003
 -4.1198730e-003 -3.0517578e-003 -4.5776367e-003
 -3.6621094e-003 -1.6784668e-003 -6.1035156e-003
 -3.3569336e-003 -4.5776367e-004 -5.4931641e-003
 -3.9672852e-003 -2.1362305e-003 -4.8828125e-003
 -3.5095215e-003 -2.7465820e-003 -3.9672852e-003
 -3.8146973e-003 -4.5776367e-003 -3.9672852e-003
 -4.1198730e-003 -4.5776367e-003 -3.2043457e-003
 -5.1879883e-003 -4.5776367e-004 -2.7465820e-003
 -4.5776367e-003 -2.7465820e-003 -2.7465820e-003
 -3.9672852e-003 -5.6457520e-003 -5.0354004e-003
 -3.5095215e-003 -3.0517578e-003 -5.3405762e-003
 -3.5095215e-003 -3.2043457e-003 -5.4931641e-003
 -3.6621094e-003 -3.3569336e-003 -4.1198730e-003
 -3.9672852e-003 -3.6621094e-003 -3.3569336e-003
 -3.8146973e-003 -3.5095215e-003 -3.9672852e-003
 -3.3569336e-003 -3.6621094e-003 -4.2724609e-003
 -2.8991699e-003 -4.1198730e-003 -4.5776367e-003
 -3.9672852e-003 -3.0517578e-003 -4.1198730e-003
 -4.2724609e-003 -4.5776367e-003 -3.3569336e-003
 -3.9672852e-003 -4.8828125e-003 -2.7465820e-003
 -3.5095215e-003 -3.8146973e-003 -2.1362305e-003
 -4.8828125e-003 -3.6621094e-003 -2.5939941e-003
 -5.3405762e-003 -4.7302246e-003 -3.5095215e-003
 -5.4931641e-003 -3.5095215e-003 -3.0517578e-003
 -4.7302246e-003 -3.6621094e-003 -4.5776367e-003
 -4.1198730e-003 -3.9672852e-003 -3.3569336e-003
 -5.0354004e-003 -3.9672852e-003 -3.5095215e-003
 -4.5776367e-003 -3.8146973e-003 -4.1198730e-003
 -4.2724609e-003 -4.8828125e-003 -5.1879883e-003
 -3.3569336e-003 -3.3569336e-003 -5.4931641e-003
 -4.1198730e-003 -5.7983398e-003 -5.7983398e-003
 -4.8828125e-003 -4.5776367e-003 -5.3405762e-003
 -3.5095215e-003 -5.0354004e-003 -4.2724609e-003
 -3.5095215e-003 -3.3569336e-003 -3.8146973e-003
 -2.5939941e-003 -2.7465820e-003 -3.2043457e-003
 -2.1362305e-003 -5.6457520e-003 -3.2043457e-003
 -1.0681152e-003 -5.0354004e-003 -3.2043457e-003
 -3.3569336e-003 -3.9672852e-003 -5.0354004e-003
 -3.3569336e-003 -5.6457520e-003 -5.6457520e-003
 -2.7465820e-003 -5.4931641e-003 -4.4250488e-003
 -3.6621094e-003 -4.5776367e-003 -3.2043457e-003
 -4.7302246e-003 -4.1198730e-003 -3.0517578e-003
 -5.0354004e-003 -5.1879883e-003 -5.3405762e-003
 -5.0354004e-003 -4.1198730e-003 -7.1716309e-003
 -4.7302246e-003 -4.8828125e-003 -7.3242188e-003
 -3.8146973e-003 -3.8146973e-003 -6.5612793e-003
 -3.3569336e-003 -4.7302246e-003 -5.7983398e-003
 -4.2724609e-003 -3.8146973e-003 -5.9509277e-003
 -3.8146973e-003 -4.5776367e-003 -6.4086914e-003
 -3.6621094e-003 -6.4086914e-003 -6.2561035e-003
 -4.1198730e-003 -4.5776367e-003 -4.2724609e-003
 -3.5095215e-003 -5.1879883e-003 -2.7465820e-003
 -4.1198730e-003 -4.7302246e-003 -1.3732910e-003
 -4.5776367e-003 -3.3569336e-003 -1.5258789e-004
 -3.6621094e-003 -3.6621094e-003  0.0000000e+000
 -3.6621094e-003 -4.2724609e-003 -1.0681152e-003
 -3.2043457e-003 -3.5095215e-003 -2.7465820e-003
 -3.3569336e-003 -4.2724609e-003 -3.2043457e-003
 -3.8146973e-003 -3.2043457e-003 -3.5095215e-003
 -3.0517578e-003 -2.7465820e-003 -3.9672852e-003
 -3.3569336e-003 -3.2043457e-003 -4.5776367e-003
 -3.5095215e-003 -4.5776367e-003 -5.1879883e-003
 -3.3569336e-003 -4.1198730e-003 -5.0354004e-003
 -3.5095215e-003 -4.1198730e-003 -5.0354004e-003
 -3.3569336e-003 -5.3405762e-003 -5.3405762e-003
 -3.3569336e-003 -4.2724609e-003 -4.1198730e-003
 -4.2724609e-003 -3.3569336e-003 -5.7983398e-003
 -4.5776367e-003 -5.0354004e-003 -4.7302246e-003
 -4.1198730e-003 -5.4931641e-003 -5.0354004e-003
 -4.7302246e-003 -5.9509277e-003 -5.1879883e-003
 -4.4250488e-003 -5.3405762e-003 -4.1198730e-003
 -4.1198730e-003 -4.7302246e-003 -3.2043457e-003
 -3.6621094e-003 -4.8828125e-003 -6.1035156e-004
 -4.1198730e-003 -5.9509277e-003 -2.2888184e-003
 -4.5776367e-003 -5.0354004e-003 -1.8310547e-003
 -3.3569336e-003 -4.4250488e-003 -1.8310547e-003
 -4.2724609e-003 -4.1198730e-003 -4.5776367e-003
 -3.6621094e-003 -2.8991699e-003 -5.6457520e-003
 -2.8991699e-003 -2.7465820e-003 -4.1198730e-003
 -4.2724609e-003 -3.9672852e-003 -4.5776367e-003
 -4.2724609e-003 -3.9672852e-003 -4.1198730e-003
 -4.2724609e-003 -3.2043457e-003 -3.2043457e-003
 -4.2724609e-003 -3.3569336e-003 -4.2724609e-003
 -4.2724609e-003 -4.5776367e-003 -5.7983398e-003
 -3.9672852e-003 -4.1198730e-003 -8.2397461e-003
 -5.0354004e-003 -2.5939941e-003 -7.0190430e-003
 -5.0354004e-003  3.0517578e-004 -4.2724609e-003
 -5.3405762e-003 -4.5776367e-004 -1.9836426e-003
 -5.6457520e-003 -2.7465820e-003 -1.9836426e-003
 -5.1879883e-003 -3.5095215e-003 -3.8146973e-003
 -4.4250488e-003 -4.5776367e-003 -7.7819824e-003
 -4.1198730e-003 -4.5776367e-003 -7.7819824e-003
 -4.5776367e-003 -4.1198730e-003 -6.2561035e-003
 -3.9672852e-003 -4.2724609e-003 -3.3569336e-003
 -3.8146973e-003 -4.8828125e-003 -1.5258789e-003
 -3.8146973e-003 -4.7302246e-003 -1.2207031e-003
 -3.2043457e-003 -4.7302246e-003 -1.8310547e-003
 -3.0517578e-003 -2.7465820e-003 -9.1552734e-004
 -2.8991699e-003 -2.7465820e-003 -2.1362305e-003
 -2.7465820e-003 -3.0517578e-003 -3.5095215e-003
 -2.1362305e-003 -3.5095215e-003 -3.5095215e-003
 -3.3569336e-003 -3.5095215e-003 -3.3569336e-003
 -3.2043457e-003 -3.9672852e-003 -1.8310547e-003
 -3.9672852e-003 -6.8664551e-003 -1.8310547e-003
 -3.5095215e-003 -4.7302246e-003 -2.5939941e-003
 -2.8991699e-003 -2.8991699e-003 -2.5939941e-003
 -3.3569336e-003 -1.6784668e-003 -2.2888184e-003
 -3.2043457e-003 -1.2207031e-003 -2.7465820e-003
 -4.1198730e-003 -2.1362305e-003 -5.7983398e-003
 -3.9672852e-003  1.8310547e-003 -6.8664551e-003
 -3.8146973e-003 -1.3732910e-003 -7.4768066e-003
 -3.0517578e-003 -4.1198730e-003 -5.1879883e-003
 -1.5258789e-003 -4.7302246e-003 -4.5776367e-003
 -2.5939941e-003 -4.1198730e-003 -4.4250488e-003
 -3.6621094e-003 -4.1198730e-003 -4.1198730e-003
 -3.9672852e-003 -4.2724609e-003 -2.8991699e-003
 -3.9672852e-003 -3.6621094e-003 -2.1362305e-003
 -4.2724609e-003 -4.5776367e-003 -1.6784668e-003
 -3.9672852e-003 -5.0354004e-003 -2.8991699e-003
 -3.3569336e-003 -5.1879883e-003 -2.8991699e-003
 -4.7302246e-003 -5.0354004e-003 -1.6784668e-003
 -4.5776367e-003 -3.5095215e-003 -9.1552734e-004
 -4.1198730e-003 -4.5776367e-003 -2.1362305e-003
 -4.5776367e-003 -5.9509277e-003 -3.3569336e-003
 -4.2724609e-003 -5.9509277e-003 -2.7465820e-003
 -3.9672852e-003 -5.6457520e-003 -4.1198730e-003
 -5.4931641e-003 -4.8828125e-003 -3.2043457e-003
 -4.2724609e-003 -4.1198730e-003 -1.9836426e-003
 -4.5776367e-003 -4.2724609e-003 -3.6621094e-003
 -5.4931641e-003 -2.8991699e-003 -3.5095215e-003
 -5.7983398e-003 -4.1198730e-003 -3.0517578e-003
 -5.0354004e-003 -3.5095215e-003 -3.3569336e-003
 -4.7302246e-003 -3.8146973e-003 -3.6621094e-003
 -3.8146973e-003 -2.8991699e-003 -3.6621094e-003
 -3.3569336e-003 -3.2043457e-003 -2.2888184e-003
 -2.8991699e-003 -2.8991699e-003 -1.0681152e-003
 -2.8991699e-003 -3.0517578e-003 -1.5258789e-004
 -3.3569336e-003 -3.5095215e-003 -9.1552734e-004
 -3.0517578e-003 -3.6621094e-003 -1.8310547e-003
 -1.2207031e-003 -2.4414063e-003 -2.7465820e-003
 -1.9836426e-003 -3.3569336e-003 -3.3569336e-003
 -2.2888184e-003 -2.2888184e-003 -4.1198730e-003
 -2.4414063e-003 -3.3569336e-003 -3.9672852e-003
 -3.6621094e-003 -3.9672852e-003 -4.7302246e-003
 -4.2724609e-003 -3.2043457e-003 -4.5776367e-003
 -4.5776367e-003 -3.5095215e-003 -5.0354004e-003
 -4.1198730e-003 -4.5776367e-003 -4.8828125e-003
 -4.5776367e-003 -3.2043457e-003 -5.0354004e-003
 -5.6457520e-003 -3.3569336e-003 -4.2724609e-003
 -5.7983398e-003 -3.3569336e-003 -4.1198730e-003
 -5.6457520e-003 -3.6621094e-003 -4.5776367e-003
 -4.5776367e-003 -4.1198730e-003 -5.1879883e-003
 -4.1198730e-003 -4.8828125e-003 -6.4086914e-003
 -4.1198730e-003 -3.2043457e-003 -8.0871582e-003
 -3.6621094e-003 -4.1198730e-003 -8.2397461e-003
 -4.2724609e-003 -3.5095215e-003 -7.6293945e-003
 -4.1198730e-003 -3.3569336e-003 -6.7138672e-003
 -3.5095215e-003 -2.7465820e-003 -5.7983398e-003
 -3.3569336e-003 -3.8146973e-003 -5.7983398e-003
 -4.7302246e-003 -3.3569336e-003 -5.6457520e-003
 -2.2888184e-003 -3.6621094e-003 -4.7302246e-003
 -1.6784668e-003 -2.5939941e-003 -3.3569336e-003
 -9.1552734e-004 -2.7465820e-003 -2.7465820e-003
 -2.4414063e-003 -2.4414063e-003 -3.3569336e-003
 -5.3405762e-003 -2.8991699e-003 -4.5776367e-003
 -3.9672852e-003 -4.1198730e-003 -6.4086914e-003
 -3.5095215e-003 -5.0354004e-003 -6.5612793e-003
 -4.2724609e-003 -3.6621094e-003 -7.7819824e-003
 -3.2043457e-003 -3.0517578e-003 -8.8500977e-003
 -4.1198730e-003 -5.0354004e-003 -8.0871582e-003
 -4.1198730e-003 -3.8146973e-003 -7.4768066e-003
 -5.3405762e-003 -3.5095215e-003 -6.4086914e-003
 -4.8828125e-003 -3.8146973e-003 -5.9509277e-003
 -4.1198730e-003 -3.5095215e-003 -5.3405762e-003
 -4.1198730e-003 -3.3569336e-003 -3.6621094e-003
 -3.8146973e-003 -3.6621094e-003 -3.2043457e-003
 -3.9672852e-003 -4.4250488e-003 -2.7465820e-003
 -4.7302246e-003 -4.1198730e-003 -1.8310547e-003
 -4.4250488e-003 -4.8828125e-003 -2.1362305e-003
 -4.1198730e-003 -5.1879883e-003 -1.3732910e-003
 -3.6621094e-003 -4.5776367e-003 -1.3732910e-003
 -3.5095215e-003 -4.7302246e-003 -1.9836426e-003
 -4.2724609e-003 -5.0354004e-003 -1.0681152e-003
 -7.0190430e-003 -5.1879883e-003 -6.1035156e-004
 -4.7302246e-003 -4.8828125e-003 -1.3732910e-003
 -5.3405762e-003 -5.3405762e-003 -2.2888184e-003
 -5.0354004e-003 -5.9509277e-003 -2.5939941e-003
 -5.1879883e-003  9.1552734e-004 -3.0517578e-003
 -5.9509277e-003  1.8310547e-003 -3.9672852e-003
 -4.5776367e-003 -2.4414063e-003 -3.9672852e-003
 -3.3569336e-003 -9.3078613e-003 -1.8310547e-003
 -2.7465820e-003 -4.8828125e-003  6.5612793e-003
 -1.8310547e-003 -2.1362305e-003 -7.6293945e-004
 -2.2888184e-003 -2.8991699e-003 -9.7656250e-003
 -2.1362305e-003 -2.2888184e-003 -1.1138916e-002
 -2.2888184e-003 -2.1362305e-003 -7.4768066e-003
 -1.6784668e-003 -1.5258789e-003 -1.6784668e-003
 -2.7465820e-003 -7.6293945e-004  3.0517578e-004
 -5.9509277e-003 -7.6293945e-004 -1.6784668e-003
 -2.4414063e-003 -3.2043457e-003 -3.3569336e-003
 -6.1035156e-004 -2.8991699e-003 -3.0517578e-003
 -4.5776367e-004 -4.5776367e-003 -3.6621094e-003
 -2.4414063e-003 -3.0517578e-003 -4.1198730e-003
 -3.0517578e-003 -4.1198730e-003 -3.5095215e-003
 -4.8828125e-003 -3.0517578e-003 -4.5776367e-003
 -7.4768066e-003 -2.8991699e-003 -6.4086914e-003
 -1.5258789e-004 -4.5776367e-003 -5.9509277e-003
 -3.0517578e-004 -2.2888184e-003 -6.5612793e-003
 -2.4414063e-003 -2.1362305e-003 -6.1035156e-003
 -2.1362305e-003 -4.5776367e-003  6.5612793e-003
 -4.5776367e-003 -2.7465820e-003  5.7983398e-003
 -5.4931641e-003  2.5939941e-003  3.2043457e-003
  1.0681152e-003  1.0528564e-002 -7.0190430e-003
  3.5095215e-003  6.1035156e-003 -1.3732910e-003
 -5.9509277e-003 -3.0517578e-003 -5.0354004e-003
 -1.0070801e-002 -1.1596680e-002 -1.4343262e-002
 -1.3732910e-002 -1.8157959e-002 -1.5106201e-002
 -1.3885498e-002 -1.8463135e-002 -1.3122559e-002
 -6.7138672e-003 -1.3427734e-002 -9.9182129e-003
  1.9836426e-003  8.8500977e-003 -8.2397461e-003
 -1.3732910e-003  3.1433105e-002 -6.7138672e-003
  3.0517578e-003  8.5449219e-003 -5.0354004e-003
 -3.3569336e-003 -1.3580322e-002 -3.0517578e-003
 -7.4768066e-003 -2.3345947e-002 -9.1552734e-004
 -7.7819824e-003 -1.9989014e-002 -7.6293945e-004
  6.1035156e-004 -1.3122559e-002 -1.3732910e-003
 -3.8146973e-003 -5.9509277e-003 -1.8310547e-003
 -5.0354004e-003 -4.5776367e-003 -7.6293945e-004
 -3.3569336e-003 -3.9672852e-003 -9.1552734e-004
 -3.5095215e-003 -2.5939941e-003 -1.0681152e-003
 -9.1552734e-004 -1.6784668e-003 -2.2888184e-003
 -1.3732910e-003 -9.1552734e-004 -2.2888184e-003
 -3.5095215e-003  4.5776367e-003 -3.9672852e-003
 -3.3569336e-003  1.4648438e-002 -5.6457520e-003
 -7.4768066e-003  6.8664551e-003 -6.8664551e-003
 -6.4086914e-003  3.8604736e-002 -9.0026855e-003
 -3.8146973e-003  4.8980713e-002 -5.3405762e-003
 -1.9836426e-003 -8.0871582e-003 -9.1552734e-004
 -1.5258789e-003 -4.3945313e-002  1.3122559e-002
 -5.0354004e-003 -2.3193359e-002  2.8839111e-002
 -6.5612793e-003 -5.9509277e-003  1.1749268e-002
 -3.2043457e-003 -2.0751953e-002 -6.4086914e-003
  1.5258789e-004 -3.7078857e-002 -1.6021729e-002
  2.2888184e-003 -1.9836426e-002 -1.8463135e-002
  6.8664551e-003 -5.0354004e-003 -1.5411377e-002
  3.5095215e-003 -1.4801025e-002 -1.3122559e-002
  2.7465820e-003  9.3078613e-003 -1.2512207e-002
  1.5258789e-003  2.1209717e-002 -1.2207031e-002
 -3.5095215e-003  8.8500977e-003 -9.9182129e-003
 -1.0375977e-002 -2.0751953e-002  1.4495850e-002
 -1.6784668e-002 -2.0141602e-002  1.6784668e-002
 -1.6174316e-002  1.0223389e-002 -3.5095215e-003
 -6.4086914e-003  4.7302246e-003 -1.5563965e-002
 -5.3405762e-003 -3.2043457e-003 -1.9683838e-002
  4.5776367e-004 -5.3405762e-003 -1.4953613e-002
 -2.4414063e-003 -2.2277832e-002 -8.2397461e-003
 -1.0681152e-002 -2.3803711e-002 -8.0871582e-003
 -1.3275146e-002 -2.4566650e-002  9.6130371e-003
 -1.0681152e-002 -1.4190674e-002  1.4648438e-002
 -7.9345703e-003  5.2032471e-002  6.1035156e-004
 -6.4086914e-003  4.3487549e-002 -1.1749268e-002
 -9.0026855e-003  1.1291504e-002 -1.8615723e-002
 -8.3923340e-003 -7.0190430e-003 -1.9073486e-002
 -6.7138672e-003 -1.3122559e-002 -1.5563965e-002
 -4.1198730e-003 -1.2969971e-002 -9.7656250e-003
 -3.3569336e-003  2.5939941e-003  1.5258789e-003
  1.5258789e-004 -2.2888184e-002  9.3078613e-003
  6.1035156e-004 -2.2430420e-002  1.0833740e-002
 -4.5776367e-003 -1.0681152e-003  6.4086914e-003
  1.2359619e-002  1.1901855e-002  1.0681152e-003
  3.6926270e-002  9.3078613e-003 -1.0528564e-002
  1.9531250e-002 -1.3885498e-002 -1.9073486e-002
 -9.1552734e-003 -2.0294189e-002 -2.3040771e-002
 -3.1280518e-002 -2.8991699e-003 -9.9182129e-003
 -2.2735596e-002  9.6130371e-003  1.6784668e-003
 -4.1198730e-003  1.6326904e-002  5.4931641e-003
  4.5776367e-003  2.8991699e-003  6.5612793e-003
 -8.5449219e-003 -2.2888184e-003 -9.1552734e-004
  7.6293945e-004 -4.1198730e-003 -1.3732910e-002
  0.0000000e+000 -8.3923340e-003 -1.7700195e-002
 -7.1716309e-003 -1.2664795e-002 -1.1749268e-002
 -1.5869141e-002 -3.3569336e-003 -7.1716309e-003
 -1.6326904e-002  5.9509277e-003 -3.8146973e-003
 -1.6784668e-002  1.5258789e-003 -6.1035156e-004
  1.9836426e-003  0.0000000e+000  4.2724609e-003
  1.8920898e-002 -1.5258789e-004  5.0354004e-003
  8.8500977e-003 -1.3580322e-002  1.1291504e-002
 -9.4604492e-003 -2.0599365e-002  1.0528564e-002
 -2.0141602e-002 -6.5612793e-003  1.2207031e-003
 -1.2359619e-002  1.5258789e-003 -5.9509277e-003
  1.2207031e-002 -3.9672852e-003 -9.0026855e-003
  2.4108887e-002 -1.0833740e-002 -1.0681152e-002
  1.1291504e-002 -1.1138916e-002 -1.0681152e-002
  3.5095215e-003 -1.1138916e-002 -1.3122559e-002
 -2.4108887e-002 -5.4931641e-003 -9.3078613e-003
 -2.6092529e-002  6.1035156e-004 -2.8991699e-003
 -1.8463135e-002  5.7983398e-003  4.5776367e-004
 -1.0528564e-002  4.4250488e-003  3.0517578e-004
  3.2043457e-003 -7.6293945e-004  1.5258789e-004
 -1.5716553e-002 -3.5095215e-003 -1.9836426e-003
 -3.3264160e-002 -5.4931641e-003 -4.1198730e-003
 -1.7242432e-002 -9.7656250e-003 -2.8991699e-003
  3.0517578e-004 -9.4604492e-003 -1.6784668e-003
  5.7983398e-003 -9.6130371e-003 -1.5258789e-003
  1.6784668e-003 -5.7983398e-003 -3.6621094e-003
 -2.1362305e-003 -1.5258789e-004  3.9672852e-003
 -9.1552734e-004  4.4250488e-003  1.0375977e-002
 -7.7819824e-003  4.1198730e-003  1.0833740e-002
 -3.2043457e-003 -3.2043457e-003  2.4414063e-003
  7.4768066e-003 -7.4768066e-003 -5.1879883e-003
  1.4495850e-002 -7.9345703e-003 -8.5449219e-003
  1.0375977e-002  2.1362305e-003 -1.0833740e-002
  5.9509277e-003  9.1552734e-004 -1.0528564e-002
  3.0517578e-004  1.5258789e-003 -9.1552734e-003
 -2.1362305e-003 -4.5776367e-003 -8.2397461e-003
 -3.2043457e-003 -1.3427734e-002 -7.4768066e-003
 -4.5776367e-003 -1.3885498e-002 -7.3242188e-003
 -4.4250488e-003  1.3732910e-003 -1.0833740e-002
 -4.5776367e-003  4.4250488e-003 -9.0026855e-003
 -5.0354004e-003 -8.2397461e-003 -7.0190430e-003
 -4.7302246e-003 -1.8463135e-002 -5.1879883e-003
 -4.1198730e-003  3.0517578e-004 -3.6621094e-003
 -3.5095215e-003  1.9073486e-002 -1.8310547e-003
 -2.2888184e-003  1.3885498e-002 -1.6784668e-003
 -1.6784668e-003 -1.2207031e-003 -1.0681152e-003
 -1.8310547e-003 -2.8381348e-002 -1.5258789e-004
 -3.6621094e-003 -3.8299561e-002 -2.2888184e-003
 -4.8828125e-003 -3.1585693e-002 -4.5776367e-004
 -5.4931641e-003 -2.0446777e-002  3.2043457e-003
 -6.1035156e-003 -1.5563965e-002  1.3732910e-003
 -3.3569336e-003 -1.6784668e-003 -1.5258789e-004
 -1.0681152e-003  1.0681152e-002 -6.1035156e-003
 -3.8146973e-003 -6.4086914e-003 -1.8157959e-002
 -8.6975098e-003  4.2724609e-003 -1.2512207e-002
 -1.0070801e-002  9.9182129e-003  0.0000000e+000
 -5.3405762e-003  9.0026855e-003  5.1879883e-003
  1.5258789e-003  8.6975098e-003 -7.6293945e-004
 -2.5939941e-003 -1.0681152e-002 -6.8664551e-003
 -8.8500977e-003 -2.5787354e-002 -1.7852783e-002
 -1.1596680e-002 -2.5482178e-002 -8.5449219e-003
 -1.0070801e-002 -1.9683838e-002  4.4250488e-003
 -8.6975098e-003 -7.7819824e-003  7.7819824e-003
 -8.3923340e-003  8.2397461e-003  2.2888184e-003
 -4.5776367e-003  2.3040771e-002 -5.0354004e-003
  5.1879883e-003  4.2877197e-002 -1.0833740e-002
  4.4250488e-003  2.7465820e-002 -1.0528564e-002
 -7.0190430e-003  1.6632080e-002 -1.1138916e-002
 -1.3122559e-002  4.4250488e-003 -8.8500977e-003
 -1.5258789e-002 -2.0599365e-002 -3.0517578e-003
 -1.6784668e-002 -3.3416748e-002  1.2207031e-003
 -8.2397461e-003 -2.0446777e-002  1.5258789e-003
  1.4190674e-002 -5.9509277e-003  9.1552734e-004
  3.6010742e-002 -5.7983398e-003 -2.2888184e-003
  3.7689209e-002 -2.2888184e-003 -5.4931641e-003
  7.6293945e-004 -1.5258789e-003 -7.7819824e-003
 -3.7078857e-002 -6.7138672e-003 -1.2817383e-002
 -3.1127930e-002 -8.2397461e-003 -1.2969971e-002
  6.2561035e-003  4.7302246e-003 -7.6293945e-004
  2.2277832e-002  3.8146973e-003  9.4604492e-003
 -9.1552734e-004 -1.1291504e-002  1.4953613e-002
 -1.4648438e-002 -1.7700195e-002  7.1716309e-003
 -6.8664551e-003 -1.4495850e-002 -6.7138672e-003
  3.3569336e-003 -1.3427734e-002 -1.1444092e-002
  1.6784668e-003 -5.7983398e-003 -9.4604492e-003
 -1.3427734e-002  2.5939941e-002 -6.5612793e-003
 -2.4719238e-002  2.1667480e-002 -4.1198730e-003
 -2.0141602e-002  1.6479492e-002  0.0000000e+000
 -1.1138916e-002  2.8533936e-002 -9.1552734e-004
 -7.3242188e-003  1.9226074e-002 -3.0517578e-003
 -8.2397461e-003 -1.4343262e-002 -2.1362305e-003
 -1.3732910e-003 -2.8381348e-002 -4.7302246e-003
  8.0871582e-003 -1.4648438e-002 -5.6457520e-003
  8.6975098e-003 -7.4768066e-003 -6.4086914e-003
 -6.4086914e-003 -2.0446777e-002 -2.7465820e-003
 -2.1057129e-002 -3.0975342e-002 -1.5258789e-003
 -2.4261475e-002 -1.3732910e-003 -4.1198730e-003
 -2.1667480e-002  5.7983398e-003 -4.7302246e-003
 -3.3569336e-003 -1.3427734e-002 -9.1552734e-004
  3.8299561e-002 -2.3803711e-002  3.0517578e-003
  5.1574707e-002 -2.1667480e-002  4.7302246e-003
  1.9531250e-002 -1.0528564e-002  1.9836426e-003
 -1.7852783e-002  3.0517578e-004 -4.4250488e-003
 -2.0294189e-002  6.4086914e-003 -9.1552734e-003
 -7.0190430e-003  8.3923340e-003 -9.9182129e-003
 -2.7465820e-003  2.5177002e-002 -8.2397461e-003
 -8.5449219e-003  1.0681152e-002 -9.7656250e-003
 -1.4801025e-002 -1.5258789e-004 -9.9182129e-003
 -1.4190674e-002 -9.1552734e-004 -9.0026855e-003
 -6.7138672e-003  2.7465820e-003 -6.7138672e-003
  2.7465820e-003  6.5612793e-003 -1.5258789e-004
  5.6457520e-003 -1.3122559e-002  1.0375977e-002
  3.9672852e-003 -2.3040771e-002  1.1291504e-002
 -5.7983398e-003 -1.7852783e-002  9.9182129e-003
 -1.2207031e-002 -1.0986328e-002  6.1035156e-003
 -1.5258789e-003 -1.9836426e-003 -8.3923340e-003
  6.5612793e-003 -3.9672852e-003 -1.8157959e-002
 -5.0354004e-003 -5.0354004e-003 -2.2430420e-002
 -2.0904541e-002 -4.5776367e-003 -1.7395020e-002
 -1.8005371e-002  2.1362305e-003 -7.7819824e-003
 -6.5612793e-003  1.0986328e-002 -2.2888184e-003
 -9.1552734e-004 -6.2561035e-003  1.3732910e-003
 -3.0517578e-003 -1.1444092e-002  2.2888184e-003
 -4.1198730e-003  4.1198730e-003  3.2043457e-003
 -9.0026855e-003  4.0130615e-002  3.0517578e-004
 -1.4953613e-002  3.9367676e-002 -6.5612793e-003
 -1.8920898e-002  3.8146973e-003 -9.0026855e-003
 -2.2430420e-002 -1.7700195e-002 -7.6293945e-003
 -2.1209717e-002 -1.9683838e-002 -4.1198730e-003
  4.2724609e-003 -1.0681152e-002  1.0223389e-002
  4.4250488e-002 -9.9182129e-003  3.6163330e-002
  5.8746338e-002 -1.3732910e-002  4.8980713e-002
  2.8381348e-002 -7.9345703e-003  2.9144287e-002
 -1.0070801e-002  2.1362305e-003 -1.0681152e-002
 -2.3651123e-002  0.0000000e+000 -4.0435791e-002
 -7.0190430e-003 -7.3242188e-003 -4.5166016e-002
  1.0528564e-002 -1.2664795e-002 -3.0517578e-002
  5.4931641e-003 -1.3885498e-002 -1.3427734e-002
 -1.0986328e-002 -1.2969971e-002 -6.7138672e-003
 -2.2125244e-002 -1.0681152e-002 -1.2512207e-002
 -2.6702881e-002 -1.0223389e-002 -2.1667480e-002
 -2.3040771e-002  7.3242188e-003 -1.7852783e-002
 -2.7313232e-002  3.4332275e-002  6.1035156e-003
 -3.1890869e-002  2.2277832e-002  1.9836426e-002
 -1.4190674e-002 -9.1552734e-004  1.3732910e-002
  9.3078613e-003 -1.0986328e-002  0.0000000e+000
  1.4038086e-002 -1.1901855e-002 -1.5411377e-002
  3.9672852e-003 -2.1209717e-002 -3.0975342e-002
 -1.1291504e-002 -1.8157959e-002 -3.3264160e-002
 -1.3580322e-002 -2.1362305e-003 -5.1879883e-003
 -4.1198730e-003  1.8310547e-003  3.9825439e-002
  1.7395020e-002  2.1362305e-003  5.7067871e-002
  3.6163330e-002 -1.1901855e-002  2.5329590e-002
  3.4027100e-002 -1.6479492e-002 -2.8686523e-002
  1.6326904e-002 -5.1879883e-003 -5.2947998e-002
 -1.7242432e-002 -6.7138672e-003 -3.4332275e-002
 -4.6844482e-002 -1.7852783e-002 -3.3569336e-003
 -5.0048828e-002 -2.5939941e-002  1.1291504e-002
 -1.9378662e-002 -2.5939941e-002  1.9836426e-003
  2.2125244e-002 -1.2664795e-002 -1.6021729e-002
  4.9285889e-002  1.8157959e-002 -1.0375977e-002
  3.4942627e-002  3.2501221e-002  1.8005371e-002
  5.7983398e-003  3.1433105e-002  2.4871826e-002
 -2.0446777e-002  1.7242432e-002 -3.5095215e-003
 -2.3193359e-002 -1.5106201e-002 -3.7536621e-002
 -1.6174316e-002 -3.3569336e-002 -4.9285889e-002
 -1.4495850e-002 -1.7242432e-002 -3.5400391e-002
 -1.6784668e-002  1.2817383e-002 -2.2888184e-002
 -2.0446777e-002  3.1738281e-002 -1.4801025e-002
 -1.6021729e-002  1.5106201e-002 -1.2512207e-002
 -7.7819824e-003 -1.3885498e-002 -1.0223389e-002
 -8.8500977e-003 -2.4719238e-002 -7.0190430e-003
 -8.2397461e-003 -2.5939941e-003 -1.1596680e-002
 -1.6784668e-003  2.2277832e-002 -2.0599365e-002
  3.0517578e-003  5.0354004e-003  2.5939941e-003
  2.7465820e-003 -2.2583008e-002  4.8065186e-002
  2.7465820e-003 -3.2958984e-002  5.0811768e-002
  7.0190430e-003 -2.7923584e-002  4.4250488e-003
  4.2724609e-003 -1.6326904e-002 -1.9683838e-002
  3.0517578e-004 -1.0986328e-002 -1.3580322e-002
  1.0986328e-002 -1.0681152e-002  4.5776367e-003
  1.2512207e-002 -1.0833740e-002  2.6550293e-002
  3.2043457e-003 -8.0871582e-003  3.5552979e-002
 -9.0026855e-003  4.2724609e-003  1.4648438e-002
 -1.4953613e-002  2.7313232e-002 -1.7700195e-002
 -1.8005371e-002  4.5928955e-002 -2.1209717e-002
 -1.7089844e-002  4.7302246e-002  1.7395020e-002
 -1.2664795e-002  3.0517578e-002  4.5928955e-002
 -8.0871582e-003 -7.0190430e-003  1.6326904e-002
 -1.1444092e-002 -3.4179688e-002 -3.7841797e-002
 -1.8463135e-002 -4.0435791e-002 -6.5002441e-002
 -1.7395020e-002 -2.8228760e-002 -5.5236816e-002
  6.8664551e-003 -7.4768066e-003 -4.2266846e-002
  2.7618408e-002  1.1138916e-002 -3.7994385e-002
  2.1209717e-002  3.0517578e-003 -1.1444092e-002
  2.5939941e-003 -1.5563965e-002  3.6621094e-002
 -9.1552734e-004 -2.8533936e-002  6.3018799e-002
 -7.6293945e-004 -2.5177002e-002  4.3792725e-002
  1.5258789e-003 -9.3078613e-003  5.6457520e-003
  0.0000000e+000  5.3405762e-003 -9.6130371e-003
 -5.1879883e-003  6.5612793e-003 -1.7700195e-002
 -1.1901855e-002  6.4086914e-003 -3.2653809e-002
 -1.6174316e-002 -2.7465820e-003 -2.4414063e-002
 -1.7242432e-002 -2.8381348e-002 -7.1716309e-003
 -1.3885498e-002 -4.4555664e-002 -4.5776367e-004
 -6.2561035e-003 -1.7700195e-002 -1.5106201e-002
 -1.1444092e-002  5.2795410e-002 -3.1433105e-002
 -2.2888184e-002  8.2397461e-002 -3.9978027e-002
 -2.0294189e-002  5.5847168e-002 -3.0059814e-002
 -5.1879883e-003  9.9182129e-003 -7.6293945e-003
  1.8310547e-002  6.1035156e-004  9.4604492e-003
  2.3040771e-002  1.9836426e-003  1.3732910e-003
  8.3923340e-003 -2.5482178e-002 -2.7465820e-003
  3.5095215e-003 -4.4250488e-002  2.9602051e-002
  9.3078613e-003 -4.1198730e-002  7.7667236e-002
 -4.7302246e-003 -2.3193359e-002  9.4451904e-002
 -1.7395020e-002 -7.4768066e-003  6.8664551e-002
 -1.2664795e-002 -1.3732910e-003  8.6975098e-003
 -7.4768066e-003 -4.8828125e-003 -5.2185059e-002
 -6.4086914e-003 -6.2561035e-003 -8.1024170e-002
 -7.3242188e-003 -1.1291504e-002 -8.1329346e-002
 -8.3923340e-003 -1.9683838e-002 -6.9885254e-002
 -1.3122559e-002 -1.8310547e-002 -5.0506592e-002
 -2.3040771e-002 -1.1901855e-002 -2.9449463e-002
 -1.2664795e-002 -4.2724609e-003 -1.6479492e-002
  1.2512207e-002  1.5258789e-003 -9.0026855e-003
  2.7923584e-002 -5.0354004e-003  2.7465820e-003
  2.8533936e-002 -1.9836426e-002  1.4953613e-002
  1.4343262e-002 -2.0446777e-002  2.8991699e-002
 -9.0026855e-003  1.3732910e-002  3.3874512e-002
 -2.0904541e-002  6.1492920e-002  3.7689209e-002
 -3.0059814e-002  8.4838867e-002  4.4250488e-002
 -2.4108887e-002  5.0201416e-002  4.7149658e-002
  4.7302246e-003 -6.4086914e-003  3.2501221e-002
  1.3885498e-002 -5.1574707e-002  2.7465820e-003
 -9.7656250e-003 -6.6223145e-002 -1.7547607e-002
 -1.8005371e-002 -4.5623779e-002 -2.7770996e-002
 -2.7465820e-003 -1.1291504e-002 -4.0740967e-002
  7.7819824e-003  1.6174316e-002 -4.1961670e-002
  1.1749268e-002  3.9978027e-002 -2.6397705e-002
  2.7465820e-003  3.7536621e-002 -9.0026855e-003
 -9.6130371e-003  1.3732910e-002 -6.7138672e-003
 -1.7242432e-002 -2.5939941e-002 -1.2054443e-002
 -9.7656250e-003 -2.7618408e-002 -1.0223389e-002
 -1.5258789e-003  4.5776367e-004 -1.5411377e-002
 -3.2043457e-003  9.7656250e-003 -3.2806396e-002
 -1.6479492e-002 -1.7395020e-002 -3.5858154e-002
 -1.7395020e-002 -3.7994385e-002  1.1138916e-002
 -4.7302246e-003 -3.9215088e-002  7.7056885e-002
  8.0871582e-003 -2.5787354e-002  8.5144043e-002
 -6.5612793e-003 -1.2512207e-002  2.6397705e-002
 -2.4719238e-002 -8.3923340e-003 -3.2653809e-002
 -2.7923584e-002 -1.3732910e-002 -4.2572021e-002
 -1.4801025e-002 -2.0599365e-002 -3.7689209e-002
  8.3923340e-003 -4.2419434e-002 -2.8076172e-002
  3.9978027e-002 -3.8146973e-002 -1.9226074e-002
  6.7291260e-002  3.0517578e-003 -1.3122559e-002
  5.8746338e-002  6.0882568e-002 -7.6293945e-004
  4.5776367e-003  8.7127686e-002  1.5258789e-004
 -3.7994385e-002  5.4016113e-002 -1.8920898e-002
 -3.4942627e-002 -2.7465820e-003 -4.2572021e-002
 -1.3275146e-002 -3.8757324e-002 -3.2806396e-002
 -1.3275146e-002 -3.9520264e-002  4.1351318e-002
 -7.9345703e-003 -2.4261475e-002  1.2451172e-001
 -7.0190430e-003 -1.0223389e-002  1.2405396e-001
 -2.2125244e-002 -9.1552734e-004  5.4473877e-002
 -1.2207031e-002  2.8381348e-002 -4.7302246e-003
  4.8828125e-003  6.0119629e-002 -2.9296875e-002
 -4.5776367e-003  5.4321289e-002 -4.5318604e-002
 -1.8920898e-002 -1.3427734e-002 -7.2021484e-002
 -1.0528564e-002 -5.9661865e-002 -9.4604492e-002
 -1.8310547e-003 -4.3640137e-002 -1.0269165e-001
 -7.9345703e-003  6.1035156e-003 -7.5378418e-002
 -2.4871826e-002  2.8381348e-002 -1.8157959e-002
 -3.8146973e-002 -3.5095215e-003  5.0964355e-002
 -1.6326904e-002 -3.0975342e-002  9.2315674e-002
  3.5400391e-002 -3.5095215e-002  7.5836182e-002
  4.0283203e-002 -3.1127930e-002  2.1820068e-002
  1.4038086e-002 -3.4332275e-002 -2.9754639e-002
  9.1552734e-004 -2.5329590e-002 -6.3171387e-002
 -3.3569336e-003 -3.3569336e-003 -5.9051514e-002
 -3.5095215e-003  1.5869141e-002 -2.1362305e-003
  2.2888184e-003  7.3242188e-003  6.7596436e-002
  1.5869141e-002 -6.7138672e-003  7.2784424e-002
  7.1716309e-003  1.2512207e-002  2.7923584e-002
 -3.2196045e-002  4.5471191e-002 -3.2043457e-002
 -3.8757324e-002  4.7149658e-002 -6.8511963e-002
 -1.2817383e-002  2.2735596e-002 -5.6915283e-002
 -9.9182129e-003  4.2724609e-003 -3.2958984e-002
 -2.3651123e-002 -1.6021729e-002 -1.9531250e-002
 -2.2277832e-002 -3.3416748e-002 -1.7700195e-002
 -4.1198730e-003 -3.8757324e-002 -2.0294189e-002
  1.6479492e-002 -3.7078857e-002 -1.6479492e-002
  1.9226074e-002 -2.6855469e-002 -8.2397461e-003
 -4.1198730e-003 -1.6174316e-002  3.9672852e-003
 -3.3569336e-002 -1.6784668e-002  1.7700195e-002
 -3.6926270e-002 -1.5411377e-002  2.9296875e-002
 -1.5258789e-004 -5.9509277e-003  2.5787354e-002
  2.6245117e-002 -1.0223389e-002  6.7138672e-003
  1.6632080e-002 -3.5858154e-002 -2.1362305e-003
  2.7465820e-003 -2.0446777e-002 -5.7983398e-003
  1.5411377e-002  4.2572021e-002 -1.6632080e-002
  3.9367676e-002  8.0871582e-002 -3.9062500e-002
  5.5541992e-002  5.2490234e-002 -4.6997070e-002
 -3.8146973e-003  1.6784668e-003 -3.7689209e-002
 -6.2866211e-002 -1.4343262e-002 -4.0283203e-002
 -4.4403076e-002 -2.0446777e-002 -1.0833740e-002
  3.3569336e-003 -2.8686523e-002  7.4615479e-002
  1.0681152e-002 -1.8615723e-002  1.5548706e-001
 -1.6479492e-002 -5.0354004e-003  1.3534546e-001
 -2.7770996e-002  7.1716309e-003  4.3029785e-002
 -1.9378662e-002  1.3732910e-003 -2.5939941e-002
 -9.7656250e-003  1.3732910e-003 -5.8135986e-002
  3.2043457e-003  1.9073486e-002 -7.1411133e-002
  1.4190674e-002  3.0670166e-002 -5.9509277e-002
  1.7242432e-002  1.5716553e-002 -3.1433105e-002
  9.1552734e-004 -2.4261475e-002 -9.7656250e-003
 -9.6130371e-003 -5.5847168e-002 -5.6457520e-003
 -7.7819824e-003 -4.6691895e-002 -1.2969971e-002
 -1.2359619e-002 -1.5716553e-002 -1.9989014e-002
 -1.6326904e-002  4.1198730e-003 -2.5329590e-002
 -1.3122559e-002  9.4604492e-003 -2.5787354e-002
 -1.7242432e-002  2.0751953e-002 -5.0354004e-003
 -2.3651123e-002  2.8076172e-002  4.9591064e-002
 -9.1552734e-004  9.1552734e-003  9.0026855e-002
  2.7770996e-002 -3.0212402e-002  6.6680908e-002
  2.7618408e-002 -5.0964355e-002 -2.5939941e-003
  7.4768066e-003 -4.3640137e-002 -5.0964355e-002
 -2.1820068e-002 -2.6702881e-002 -6.6223145e-002
 -3.0364990e-002 -1.2664795e-002 -4.7607422e-002
  6.1035156e-003 -6.5612793e-003 -1.7089844e-002
  3.7994385e-002  0.0000000e+000  2.1362305e-003
 -3.5095215e-003  2.5177002e-002 -9.6130371e-003
 -3.4484863e-002  5.0964355e-002 -3.4942627e-002
 -2.7008057e-002  4.3792725e-002 -2.1209717e-002
 -1.4495850e-002  1.5258789e-003  2.3498535e-002
 -6.5612793e-003 -3.3111572e-002  4.9438477e-002
 -2.1362305e-003 -2.9144287e-002  4.1809082e-002
 -1.0681152e-003 -8.8500977e-003  1.4953613e-002
 -2.5939941e-003  1.7395020e-002 -7.3242188e-003
 -4.1198730e-003  2.8533936e-002 -2.2430420e-002
 -4.7302246e-003  2.0904541e-002 -2.3498535e-002
 -4.8828125e-003 -6.4086914e-003 -2.4566650e-002
 -4.7302246e-003 -3.8452148e-002 -2.5177002e-002
 -5.4931641e-003 -5.2185059e-002  3.5095215e-003
  3.3569336e-003 -4.6844482e-002  4.8370361e-002
  1.5411377e-002 -3.0822754e-002  3.3569336e-002
  1.4953613e-002 -1.5411377e-002 -2.7313232e-002
  3.2043457e-003 -2.4414063e-003 -4.6386719e-002
 -5.4931641e-003  1.6021729e-002 -3.3569336e-002
 -8.0871582e-003  2.7008057e-002 -1.8005371e-002
 -8.2397461e-003  2.8076172e-002 -1.2054443e-002
 -6.8664551e-003  1.3732910e-002 -8.8500977e-003
 -7.1716309e-003  3.3569336e-003 -6.7138672e-003
 -7.6293945e-003  1.6784668e-003 -7.6293945e-004
 -8.3923340e-003  4.4250488e-003  8.3923340e-003
  4.1198730e-003 -4.7302246e-003  2.0141602e-002
  2.7618408e-002 -2.0294189e-002  3.0364990e-002
  2.4719238e-002 -2.3040771e-002  2.5329590e-002
 -1.2817383e-002 -1.6937256e-002  1.1444092e-002
 -2.5482178e-002 -2.1057129e-002 -6.2561035e-003
 -1.8310547e-002 -2.1057129e-002 -1.6326904e-002
 -1.0833740e-002  1.8157959e-002 -1.8768311e-002
 -9.1552734e-003  5.0964355e-002 -2.1667480e-002
 -8.5449219e-003  1.6479492e-002 -1.7700195e-002
 -7.9345703e-003 -2.0294189e-002 -1.1138916e-002
 -6.4086914e-003 -1.5258789e-003 -4.2724609e-003
 -4.7302246e-003  2.8381348e-002  1.5258789e-004
 -4.5776367e-003  1.6632080e-002  3.9672852e-003
 -4.1198730e-003 -2.1972656e-002 -9.1552734e-004
 -4.1198730e-003 -3.4942627e-002 -5.7983398e-003
 -4.5776367e-003 -2.7770996e-002 -6.8664551e-003
 -4.1198730e-003 -1.5869141e-002 -3.9672852e-003
 -3.2043457e-003 -7.0190430e-003 -9.1552734e-004
 -2.8991699e-003 -9.7656250e-003 -6.1035156e-004
 -2.8991699e-003 -1.6784668e-002 -9.1552734e-004
 -2.8991699e-003 -3.3264160e-002 -1.5258789e-003
 -5.4931641e-003 -3.1890869e-002 -1.6784668e-003
 -5.0354004e-003  9.3078613e-003 -3.9672852e-003
 -4.4250488e-003  5.3710938e-002 -5.6457520e-003
 -4.1198730e-003  4.4250488e-002 -6.1035156e-003
 -2.8991699e-003 -1.7852783e-002 -4.5776367e-003
 -7.6293945e-004 -4.8522949e-002 -4.8828125e-003
 -1.5258789e-004 -9.4604492e-003 -7.4768066e-003
 -1.6784668e-003  5.9356689e-002 -1.0681152e-002
 -4.5776367e-003  6.5917969e-002 -1.1444092e-002
 -5.0354004e-003  2.2888184e-002 -1.0223389e-002
 -4.2724609e-003 -2.8533936e-002 -9.1552734e-003
 -4.2724609e-003 -4.6081543e-002 -9.6130371e-003
 -4.1198730e-003 -3.9978027e-002  3.0517578e-004
 -4.2724609e-003 -2.5024414e-002  2.4108887e-002
 -4.4250488e-003 -4.5776367e-003  3.8757324e-002
 -3.6621094e-003  3.0517578e-004  1.9836426e-002
 -3.6621094e-003 -4.5776367e-004 -1.4343262e-002
 -3.3569336e-003 -1.5258789e-003 -3.2196045e-002
 -3.5095215e-003 -8.6975098e-003 -2.5482178e-002
 -4.1198730e-003 -1.1749268e-002 -1.3885498e-002
 -4.2724609e-003 -1.5716553e-002 -7.7819824e-003
 -3.9672852e-003  1.5258789e-003 -5.0354004e-003
 -4.1198730e-003  2.4261475e-002 -3.5095215e-003
 -3.3569336e-003  3.0670166e-002 -3.3569336e-003
 -2.8991699e-003  1.3732910e-003 -3.9672852e-003
 -3.6621094e-003 -1.8768311e-002 -5.0354004e-003
 -3.6621094e-003 -1.6784668e-002 -4.2724609e-003
 -3.6621094e-003 -5.4931641e-003 -4.2724609e-003
 -4.2724609e-003 -3.3569336e-003 -4.1198730e-003
 -3.5095215e-003 -4.2724609e-003 -3.8146973e-003
 -4.7302246e-003 -6.2561035e-003 -4.2724609e-003
 -4.7302246e-003 -6.4086914e-003 -3.3569336e-003
 -4.2724609e-003 -9.1552734e-004 -3.9672852e-003
 -3.9672852e-003  1.3732910e-003 -3.2043457e-003
 -4.1198730e-003 -2.8991699e-003 -2.1362305e-003
 -4.7302246e-003 -7.1716309e-003 -1.8310547e-003
 -4.4250488e-003 -9.3078613e-003 -3.6621094e-003
 -3.8146973e-003 -8.8500977e-003 -4.2724609e-003
 -4.1198730e-003 -8.2397461e-003 -3.9672852e-003
 -3.9672852e-003 -7.9345703e-003 -2.8991699e-003
 -3.5095215e-003  1.8310547e-003 -2.1362305e-003
 -2.8991699e-003  4.5776367e-003 -2.1362305e-003
 -3.9672852e-003 -3.6621094e-003 -2.8991699e-003
 -3.6621094e-003 -9.3078613e-003 -4.5776367e-003
 -3.3569336e-003 -9.7656250e-003 -3.3569336e-003
 -2.8991699e-003 -8.5449219e-003 -5.0354004e-003
 -3.3569336e-003 -6.2561035e-003 -5.0354004e-003
 -4.5776367e-003 -4.2724609e-003 -3.9672852e-003
 -3.3569336e-003 -5.0354004e-003 -3.9672852e-003
 -3.9672852e-003 -3.5095215e-003 -4.8828125e-003
 -3.5095215e-003 -9.1552734e-004 -5.7983398e-003
 -2.7465820e-003 -1.6784668e-003 -5.1879883e-003
 -3.3569336e-003 -2.2888184e-003 -3.9672852e-003
 -3.9672852e-003 -2.1362305e-003 -3.3569336e-003
 -4.1198730e-003 -1.6784668e-003 -3.3569336e-003
 -3.3569336e-003 -1.8310547e-003 -3.3569336e-003
 -1.6784668e-003 -1.8310547e-003 -3.8146973e-003
 -2.1362305e-003 -1.2207031e-003 -3.6621094e-003
 -3.3569336e-003 -1.6784668e-003 -3.6621094e-003
 -4.2724609e-003 -2.4414063e-003 -2.8991699e-003
 -4.1198730e-003 -3.6621094e-003 -3.5095215e-003
 -3.5095215e-003 -4.1198730e-003 -3.5095215e-003
 -4.2724609e-003 -4.2724609e-003 -3.0517578e-003
 -4.5776367e-003 -5.0354004e-003 -3.5095215e-003
 -4.2724609e-003 -3.5095215e-003 -4.5776367e-003
 -5.0354004e-003 -4.1198730e-003 -4.5776367e-003
 -4.1198730e-003 -3.3569336e-003 -3.6621094e-003
 -5.0354004e-003 -4.1198730e-003 -4.8828125e-003
 -3.6621094e-003 -4.7302246e-003 -4.1198730e-003
 -4.1198730e-003 -5.4931641e-003 -3.2043457e-003
 -3.3569336e-003 -5.1879883e-003 -3.3569336e-003
 -3.0517578e-003 -5.7983398e-003 -5.1879883e-003
 -4.1198730e-003 -5.7983398e-003 -5.0354004e-003
 -4.7302246e-003 -4.4250488e-003 -5.0354004e-003
 -4.1198730e-003 -5.1879883e-003 -5.4931641e-003
 -4.1198730e-003 -4.1198730e-003 -5.0354004e-003
 -3.6621094e-003 -6.7138672e-003 -3.9672852e-003
 -3.9672852e-003 -4.1198730e-003 -4.1198730e-003
 -4.2724609e-003 -4.1198730e-003 -5.0354004e-003
 -3.0517578e-003 -4.2724609e-003 -4.8828125e-003
 -3.6621094e-003 -4.8828125e-003 -5.0354004e-003
 -3.3569336e-003 -4.7302246e-003 -4.8828125e-003
 -4.1198730e-003 -5.0354004e-003 -4.8828125e-003
 -3.6621094e-003 -5.0354004e-003 -5.6457520e-003
 -3.6621094e-003 -5.3405762e-003 -4.1198730e-003
 -3.9672852e-003 -5.6457520e-003 -5.0354004e-003
 -3.6621094e-003 -5.6457520e-003 -4.8828125e-003
 -4.1198730e-003 -5.1879883e-003 -4.8828125e-003
 -4.2724609e-003 -4.1198730e-003 -4.5776367e-003
 -4.1198730e-003 -3.6621094e-003 -4.8828125e-003
 -4.5776367e-003 -3.2043457e-003 -5.7983398e-003
 -4.1198730e-003 -2.2888184e-003 -4.7302246e-003
 -4.2724609e-003 -2.7465820e-003 -4.1198730e-003
 -4.1198730e-003 -3.2043457e-003 -4.2724609e-003
 -4.2724609e-003 -3.6621094e-003 -3.5095215e-003
 -3.9672852e-003 -4.1198730e-003 -2.8991699e-003
 -2.7465820e-003 -3.8146973e-003 -2.5939941e-003
 -2.8991699e-003 -2.1362305e-003 -2.7465820e-003
 -3.9672852e-003 -2.2888184e-003 -3.0517578e-003
 -4.5776367e-003 -2.5939941e-003 -2.2888184e-003
 -4.1198730e-003 -2.1362305e-003 -6.1035156e-004
 -4.1198730e-003 -3.2043457e-003 -1.5258789e-004
 -4.2724609e-003 -3.2043457e-003 -1.0681152e-003
 -3.9672852e-003 -2.8991699e-003 -1.9836426e-003
 -3.5095215e-003 -2.4414063e-003 -2.7465820e-003
 -4.2724609e-003 -2.4414063e-003 -1.6784668e-003
 -3.9672852e-003 -1.5258789e-003 -1.2207031e-003
 -3.8146973e-003 -3.6621094e-003 -4.5776367e-004
 -3.9672852e-003 -4.2724609e-003 -1.8310547e-003
 -4.1198730e-003 -5.0354004e-003 -2.1362305e-003
 -4.7302246e-003 -4.5776367e-004 -3.5095215e-003
 -4.5776367e-003 -3.5095215e-003 -4.5776367e-003
 -3.3569336e-003 -4.2724609e-003 -4.2724609e-003
 -3.9672852e-003 -5.3405762e-003 -4.5776367e-003
 -3.9672852e-003 -3.8146973e-003 -4.2724609e-003
 -3.8146973e-003 -4.4250488e-003 -4.8828125e-003
 -3.6621094e-003 -4.7302246e-003 -4.7302246e-003
 -4.1198730e-003 -3.3569336e-003 -4.5776367e-003
 -3.5095215e-003 -3.6621094e-003 -4.8828125e-003
 -2.7465820e-003 -3.8146973e-003 -5.4931641e-003
 -3.2043457e-003 -2.7465820e-003 -5.4931641e-003
 -3.5095215e-003 -2.5939941e-003 -5.3405762e-003
 -2.5939941e-003 -3.2043457e-003 -3.5095215e-003
 -3.6621094e-003 -2.2888184e-003 -3.3569336e-003
 -4.4250488e-003 -3.2043457e-003 -4.1198730e-003
 -3.6621094e-003 -3.5095215e-003 -4.2724609e-003
 -3.9672852e-003 -5.0354004e-003 -4.5776367e-003
 -3.6621094e-003 -1.6784668e-003 -5.0354004e-003
 -4.7302246e-003 -4.2724609e-003 -3.6621094e-003
 -5.3405762e-003 -3.5095215e-003 -3.9672852e-003
 -5.3405762e-003 -3.3569336e-003 -5.7983398e-003
 -5.0354004e-003 -5.7983398e-003 -6.5612793e-003
 -4.8828125e-003 -2.7465820e-003 -6.1035156e-003
 -5.6457520e-003 -4.5776367e-003 -4.5776367e-003
 -5.1879883e-003 -4.2724609e-003 -3.2043457e-003
 -4.5776367e-003 -6.4086914e-003 -3.8146973e-003
 -2.8991699e-003 -4.5776367e-004 -3.0517578e-003
 -2.8991699e-003 -6.2561035e-003 -2.8991699e-003
 -3.2043457e-003 -3.6621094e-003 -3.9672852e-003
 -2.4414063e-003 -4.7302246e-003 -4.2724609e-003
 -2.8991699e-003 -4.7302246e-003 -4.5776367e-003
 -2.2888184e-003 -3.0517578e-003 -5.0354004e-003
 -3.5095215e-003 -1.9836426e-003 -5.4931641e-003
 -3.3569336e-003 -5.0354004e-003 -5.4931641e-003
 -3.3569336e-003  6.1035156e-004 -5.6457520e-003
 -3.8146973e-003 -1.0681152e-003 -4.2724609e-003
 -3.3569336e-003 -3.2043457e-003 -4.2724609e-003
 -3.3569336e-003 -3.8146973e-003 -4.7302246e-003
 -3.8146973e-003 -4.5776367e-003 -4.1198730e-003
 -4.5776367e-003 -3.6621094e-003 -2.7465820e-003
 -3.5095215e-003 -4.7302246e-003 -1.2207031e-003
 -3.6621094e-003 -5.4931641e-003 -2.1362305e-003
 -4.2724609e-003 -4.2724609e-003 -3.6621094e-003
 -4.5776367e-003 -4.1198730e-003 -4.1198730e-003
 -3.9672852e-003 -4.5776367e-003 -4.1198730e-003
 -3.8146973e-003 -3.8146973e-003 -2.1362305e-003
 -3.6621094e-003 -2.8991699e-003 -2.1362305e-003
 -4.1198730e-003 -3.8146973e-003 -3.5095215e-003
 -4.4250488e-003 -3.3569336e-003 -4.1198730e-003
 -3.3569336e-003 -5.7983398e-003 -3.3569336e-003
 -2.8991699e-003 -7.6293945e-003 -3.3569336e-003
 -3.2043457e-003 -3.8146973e-003 -2.5939941e-003
 -4.1198730e-003  0.0000000e+000 -3.2043457e-003
 -4.5776367e-003 -1.3732910e-003 -3.9672852e-003
 -3.5095215e-003 -1.5258789e-003 -4.5776367e-003
 -3.9672852e-003 -2.8991699e-003 -3.3569336e-003
 -4.1198730e-003 -3.0517578e-003 -3.8146973e-003
 -4.1198730e-003 -3.2043457e-003 -4.1198730e-003
 -3.8146973e-003 -3.3569336e-003 -4.8828125e-003
 -4.5776367e-003 -2.7465820e-003 -5.1879883e-003
 -5.0354004e-003 -3.5095215e-003 -4.2724609e-003
 -4.1198730e-003 -3.2043457e-003 -6.2561035e-003
 -4.2724609e-003 -3.6621094e-003 -5.6457520e-003
 -3.6621094e-003 -3.8146973e-003 -6.7138672e-003
 -3.6621094e-003 -3.5095215e-003 -1.0681152e-003
 -3.3569336e-003 -3.9672852e-003 -1.6784668e-003
 -3.8146973e-003 -3.3569336e-003 -2.4414063e-003
 -4.1198730e-003 -4.1198730e-003 -1.2207031e-003
 -4.5776367e-003 -5.1879883e-003 -1.0681152e-003
 -3.6621094e-003 -4.8828125e-003 -1.8310547e-003
 -3.3569336e-003 -4.7302246e-003 -2.5939941e-003
 -3.3569336e-003 -4.5776367e-003 -2.4414063e-003
 -3.6621094e-003 -3.9672852e-003 -2.8991699e-003
 -4.2724609e-003 -3.9672852e-003 -4.5776367e-003
 -4.2724609e-003 -5.6457520e-003 -6.2561035e-003
 -4.1198730e-003 -5.0354004e-003 -6.4086914e-003
 -3.8146973e-003 -4.4250488e-003 -7.6293945e-003
 -4.2724609e-003 -5.1879883e-003 -9.0026855e-003
 -4.1198730e-003 -4.8828125e-003 -7.7819824e-003
 -3.3569336e-003 -5.6457520e-003 -8.2397461e-003
 -4.1198730e-003 -4.1198730e-003 -7.6293945e-003
 -4.8828125e-003 -3.8146973e-003 -5.0354004e-003
 -4.5776367e-003 -3.6621094e-003 -5.3405762e-003
 -4.5776367e-003 -2.7465820e-003 -5.3405762e-003
 -3.3569336e-003 -2.7465820e-003 -6.7138672e-003
 -4.1198730e-003 -3.8146973e-003 -7.9345703e-003
 -4.2724609e-003 -3.9672852e-003 -5.7983398e-003
 -4.5776367e-003 -3.9672852e-003 -2.5939941e-003
 -4.2724609e-003 -4.1198730e-003 -1.3732910e-003
 -3.0517578e-003 -3.6621094e-003 -1.5258789e-003
 -2.7465820e-003 -2.2888184e-003 -1.3732910e-003
 -3.3569336e-003 -3.2043457e-003 -2.2888184e-003
 -2.7465820e-003 -3.6621094e-003  1.5258789e-004
 -3.2043457e-003 -4.2724609e-003  1.6784668e-003
 -3.2043457e-003 -4.5776367e-003  1.5258789e-003
 -3.5095215e-003 -4.1198730e-003 -1.2207031e-003
 -4.1198730e-003 -5.3405762e-003 -6.4086914e-003
 -4.1198730e-003 -5.1879883e-003 -6.4086914e-003
 -3.5095215e-003 -5.0354004e-003 -5.1879883e-003
 -3.5095215e-003 -3.0517578e-003 -6.2561035e-003
 -5.0354004e-003 -3.3569336e-003 -4.7302246e-003
 -4.4250488e-003 -3.6621094e-003 -3.5095215e-003
 -4.7302246e-003 -5.4931641e-003 -3.5095215e-003
 -5.0354004e-003 -5.1879883e-003 -4.1198730e-003
 -4.1198730e-003 -5.0354004e-003 -3.5095215e-003
 -3.3569336e-003 -4.2724609e-003 -4.4250488e-003
 -3.3569336e-003 -4.7302246e-003 -2.1362305e-003
 -3.8146973e-003 -4.2724609e-003  0.0000000e+000
 -4.1198730e-003 -5.3405762e-003 -2.1362305e-003
 -4.1198730e-003 -4.8828125e-003 -3.2043457e-003
 -3.3569336e-003 -3.3569336e-003 -3.2043457e-003
 -3.2043457e-003 -4.1198730e-003 -1.5258789e-003
 -2.2888184e-003 -3.3569336e-003 -3.0517578e-004
 -3.3569336e-003 -4.1198730e-003  1.0681152e-003
 -4.4250488e-003 -4.5776367e-003  1.5258789e-004
 -3.3569336e-003 -4.8828125e-003 -1.6784668e-003
 -4.1198730e-003 -4.8828125e-003 -3.6621094e-003
 -4.5776367e-003 -5.0354004e-003 -4.7302246e-003
 -3.5095215e-003 -5.0354004e-003 -5.9509277e-003
 -3.8146973e-003 -4.5776367e-003 -4.7302246e-003
 -4.2724609e-003 -5.0354004e-003 -5.6457520e-003
 -4.5776367e-003 -5.1879883e-003 -5.9509277e-003
 -5.0354004e-003 -4.7302246e-003 -5.6457520e-003
 -4.7302246e-003 -3.3569336e-003 -5.9509277e-003
 -4.2724609e-003 -2.8991699e-003 -7.0190430e-003
 -3.9672852e-003 -2.8991699e-003 -6.7138672e-003
 -3.3569336e-003 -2.1362305e-003 -5.0354004e-003
 -3.3569336e-003 -4.1198730e-003 -4.1198730e-003
 -3.5095215e-003 -3.3569336e-003 -3.5095215e-003
 -2.8991699e-003 -2.5939941e-003 -3.3569336e-003
 -3.3569336e-003 -2.5939941e-003 -4.2724609e-003
 -3.2043457e-003 -2.2888184e-003 -3.6621094e-003
 -2.1362305e-003 -3.3569336e-003 -3.3569336e-003
 -2.4414063e-003 -1.6784668e-003 -1.5258789e-003
 -3.5095215e-003 -3.3569336e-003 -1.6784668e-003
 -3.5095215e-003 -3.5095215e-003 -1.3732910e-003
 -4.1198730e-003 -3.9672852e-003 -2.4414063e-003
 -3.9672852e-003 -4.5776367e-003 -3.5095215e-003
 -4.1198730e-003 -5.0354004e-003 -3.2043457e-003
 -4.4250488e-003 -3.9672852e-003 -3.3569336e-003
 -4.2724609e-003 -4.5776367e-003 -3.9672852e-003
 -5.0354004e-003 -4.5776367e-003 -3.5095215e-003
 -5.1879883e-003 -5.9509277e-003 -3.3569336e-003
 -5.1879883e-003 -4.2724609e-003 -4.2724609e-003
 -5.0354004e-003 -4.1198730e-003 -4.7302246e-003
 -4.2724609e-003 -2.5939941e-003 -4.2724609e-003
 -4.1198730e-003 -2.5939941e-003 -3.5095215e-003
 -4.1198730e-003 -3.0517578e-003 -3.3569336e-003
 -4.5776367e-003 -3.5095215e-003 -2.8991699e-003
 -4.1198730e-003 -3.3569336e-003 -2.5939941e-003
 -4.5776367e-003 -2.4414063e-003 -2.5939941e-003
 -3.9672852e-003 -2.2888184e-003 -2.8991699e-003
 -3.6621094e-003 -2.1362305e-003 -2.1362305e-003
 -3.3569336e-003 -2.4414063e-003 -2.1362305e-003
 -3.6621094e-003 -4.5776367e-003 -2.4414063e-003
 -5.0354004e-003 -3.8146973e-003 -2.7465820e-003
 -4.2724609e-003 -4.1198730e-003 -3.3569336e-003
 -4.1198730e-003 -3.8146973e-003 -4.2724609e-003
 -4.1198730e-003 -4.5776367e-003 -5.7983398e-003
 -4.1198730e-003 -3.6621094e-003 -7.0190430e-003
 -5.3405762e-003 -3.8146973e-003 -8.0871582e-003
 -4.5776367e-003 -5.1879883e-003 -7.7819824e-003
 -4.7302246e-003 -5.0354004e-003 -7.0190430e-003
 -4.5776367e-003 -5.3405762e-003 -6.7138672e-003
 -4.8828125e-003 -4.5776367e-003 -7.6293945e-003
 -4.5776367e-003 -4.4250488e-003 -7.0190430e-003
 -3.6621094e-003 -4.7302246e-003 -6.7138672e-003
 -3.5095215e-003 -3.6621094e-003 -6.4086914e-003
 -3.6621094e-003 -3.2043457e-003 -4.2724609e-003
 -3.5095215e-003 -3.9672852e-003 -3.6621094e-003
 -3.3569336e-003 -2.8991699e-003 -3.8146973e-003
 -3.6621094e-003 -3.5095215e-003 -4.1198730e-003
 -3.2043457e-003 -3.3569336e-003 -4.2724609e-003
 -2.8991699e-003 -3.0517578e-003 -4.5776367e-003
 -3.2043457e-003 -1.3732910e-003 -2.7465820e-003
 -3.0517578e-003 -3.6621094e-003 -2.1362305e-003
 -2.7465820e-003 -2.7465820e-003 -2.1362305e-003
 -3.9672852e-003 -4.1198730e-003 -3.5095215e-003
 -3.9672852e-003 -4.4250488e-003 -5.0354004e-003
 -2.7465820e-003 -3.9672852e-003 -4.5776367e-003
 -3.8146973e-003 -4.1198730e-003 -4.2724609e-003
 -3.3569336e-003 -7.6293945e-004 -3.5095215e-003
 -4.2724609e-003 -3.2043457e-003 -2.1362305e-003
 -5.0354004e-003 -4.5776367e-003  6.5612793e-003
 -5.0354004e-003 -4.2724609e-003  4.5776367e-003
 -4.1198730e-003 -3.9672852e-003 -6.1035156e-003
 -3.9672852e-003 -4.4250488e-003 -1.4343262e-002
 -4.1198730e-003 -5.7983398e-003 -1.4648438e-002
 -3.6621094e-003 -7.6293945e-003 -9.7656250e-003
  5.7983398e-003 -9.1552734e-003 -5.9509277e-003
  8.2397461e-003 -4.2724609e-003 -3.5095215e-003
 -3.3569336e-003 -2.2888184e-003 -2.8991699e-003
 -1.0681152e-002 -2.8991699e-003 -2.1362305e-003
 -1.4190674e-002 -3.8146973e-003  2.8991699e-003
 -1.2969971e-002 -4.1198730e-003  2.2277832e-002
 -8.6975098e-003 -4.1198730e-003  2.6245117e-002
 -6.2561035e-003 -2.2888184e-003  7.6293945e-004
 -3.9672852e-003 -4.7302246e-003 -1.4190674e-002
 -1.8310547e-003 -3.8146973e-003 -1.7547607e-002
 -9.1552734e-004 -3.5095215e-003 -1.4038086e-002
 -7.6293945e-004 -3.5095215e-003 -1.1444092e-002
 -1.6784668e-003 -3.8146973e-003 -9.9182129e-003
 -3.3569336e-003 -4.5776367e-003 -7.7819824e-003
 -5.6457520e-003 -4.1198730e-003 -7.1716309e-003
 -6.2561035e-003 -4.8828125e-003 -4.1198730e-003
 -6.2561035e-003 -2.7465820e-003  8.6975098e-003
 -5.3405762e-003  1.3732910e-003  6.1035156e-004
 -3.3569336e-003  9.1552734e-004 -4.5776367e-003
 -3.3569336e-003 -2.2888184e-003  5.1879883e-003
 -2.2888184e-003 -7.7819824e-003  9.1552734e-004
 -2.5939941e-003 -1.1901855e-002 -9.3078613e-003
 -2.7465820e-003 -7.9345703e-003 -1.2817383e-002
 -3.2043457e-003 -4.4250488e-003 -9.6130371e-003
 -2.8991699e-003  2.1362305e-003 -7.3242188e-003
  2.2888184e-003  6.1035156e-003 -5.1879883e-003
  1.3732910e-003  1.2207031e-003 -3.8146973e-003
 -1.8310547e-003 -5.3405762e-003 -1.3732910e-003
  4.5776367e-004 -1.0986328e-002 -2.2888184e-003
  4.1198730e-003 -1.0223389e-002 -7.6293945e-003
 -4.5776367e-004 -8.8500977e-003  7.6293945e-003
 -4.5776367e-003 -3.6621094e-003  1.1749268e-002
 -8.2397461e-003 -1.9836426e-003  2.4414063e-003
 -1.2512207e-002 -4.5776367e-003 -6.7138672e-003
 -1.4343262e-002 -6.2561035e-003 -7.0190430e-003
 -9.7656250e-003 -6.5612793e-003 -5.7983398e-003
 -6.1035156e-003 -5.0354004e-003 -5.3405762e-003
 -5.4931641e-003 -4.5776367e-003 -5.0354004e-003
 -3.3569336e-003 -2.4414063e-003  2.7465820e-003
 -4.1198730e-003 -3.2043457e-003  3.8452148e-002
 -5.3405762e-003 -6.8664551e-003  4.3945313e-002
 -7.6293945e-003 -5.0354004e-003 -1.2207031e-003
 -3.6621094e-003 -3.3569336e-003 -2.9449463e-002
 -1.9836426e-003 -4.5776367e-003 -3.0059814e-002
 -1.0681152e-003 -2.5939941e-003 -2.1667480e-002
 -1.5258789e-003 -1.6784668e-003 -1.8005371e-002
 -4.8828125e-003 -7.3242188e-003 -1.4648438e-002
 -6.5612793e-003 -1.1444092e-002  3.0517578e-004
 -7.6293945e-004  7.6293945e-004  1.6174316e-002
  3.8146973e-003  1.4190674e-002  7.6293945e-004
  3.9672852e-003  8.5449219e-003 -1.4190674e-002
 -7.6293945e-004 -9.1552734e-004 -1.5258789e-002
 -1.0223389e-002 -5.4931641e-003 -1.2359619e-002
 -1.6326904e-002 -3.6621094e-003 -1.1901855e-002
 -1.5716553e-002  1.6784668e-003 -1.0223389e-002
 -1.2054443e-002 -4.5776367e-003 -9.0026855e-003
 -7.7819824e-003 -9.1552734e-003 -1.0223389e-002
 -6.7138672e-003 -1.1291504e-002 -9.0026855e-003
  1.2207031e-003 -9.3078613e-003 -6.4086914e-003
  5.6457520e-003 -8.0871582e-003 -7.0190430e-003
  4.4250488e-003 -4.4250488e-003 -5.6457520e-003
 -2.1362305e-003  6.1035156e-004 -4.4250488e-003
 -4.8828125e-003  3.0517578e-003 -3.3569336e-003
 -3.9672852e-003 -5.4931641e-003 -1.6784668e-003
 -2.1362305e-003 -9.6130371e-003 -3.2043457e-003
 -2.2888184e-003 -4.8828125e-003 -4.1198730e-003
 -3.0517578e-003 -1.3732910e-003 -3.2043457e-003
 -3.5095215e-003  7.4768066e-003 -3.2043457e-003
 -6.4086914e-003  9.1552734e-003  1.5258789e-003
 -5.6457520e-003 -2.4414063e-003  4.4250488e-003
 -3.5095215e-003 -1.1444092e-002  4.5776367e-003
 -2.5939941e-003 -5.4931641e-003 -3.9672852e-003
 -2.7465820e-003  1.8310547e-002 -1.5563965e-002
 -2.8991699e-003 -3.8146973e-003 -2.0904541e-002
 -2.7465820e-003 -2.6550293e-002 -2.4414063e-002
 -9.1552734e-004 -2.9144287e-002 -2.4108887e-002
  3.0517578e-004 -2.0294189e-002 -1.7089844e-002
 -1.5258789e-004 -3.3569336e-003 -7.1716309e-003
 -7.6293945e-004  4.7302246e-003 -2.7465820e-003
 -1.8310547e-003  6.1035156e-003 -5.3405762e-003
 -4.1198730e-003 -5.0354004e-003 -8.2397461e-003
 -9.1552734e-003 -1.1596680e-002 -1.0528564e-002
 -7.4768066e-003 -1.0681152e-002 -1.9073486e-002
  6.8664551e-003 -7.7819824e-003 -1.6479492e-002
  1.1596680e-002 -6.4086914e-003 -2.5939941e-003
  4.1198730e-003 -2.1362305e-003  4.5776367e-003
 -8.2397461e-003  1.8005371e-002  1.5258789e-003
 -1.3580322e-002  8.2397461e-003 -4.5776367e-004
  7.6293945e-003 -7.9345703e-003  3.8146973e-003
  2.8076172e-002 -1.0986328e-002  9.3078613e-003
  5.9509277e-003 -4.8828125e-003  3.8146973e-003
 -2.8533936e-002  1.2359619e-002 -3.2043457e-003
 -3.6163330e-002  1.9836426e-003 -7.0190430e-003
 -1.6479492e-002 -2.0599365e-002  6.1035156e-004
 -8.0871582e-003 -2.2277832e-002  3.9672852e-003
 -1.2664795e-002 -5.0354004e-003 -1.3732910e-003
 -1.4801025e-002  5.4931641e-003 -7.9345703e-003
  5.4931641e-003  6.2561035e-003 -6.1035156e-003
  1.8005371e-002  1.6784668e-003  0.0000000e+000
 -2.0446777e-002 -3.2043457e-003  6.7138672e-003
 -3.4332275e-002 -5.3405762e-003  3.8146973e-003
  1.3732910e-002  1.0681152e-003 -9.3078613e-003
  1.6632080e-002  7.6293945e-004 -1.6174316e-002
  1.6784668e-002 -9.0026855e-003 -1.6174316e-002
 -1.0223389e-002 -4.1198730e-003 -1.3427734e-002
 -3.5400391e-002 -6.1035156e-004 -1.0528564e-002
 -3.3874512e-002  2.7465820e-003 -6.5612793e-003
 -1.9989014e-002 -4.5776367e-004 -4.4250488e-003
 -1.5411377e-002 -6.5612793e-003  1.3427734e-002
 -1.8615723e-002 -8.3923340e-003  1.2817383e-002
 -1.7395020e-002 -3.3569336e-003 -7.6293945e-004
 -5.0354004e-003  1.5258789e-002 -1.2512207e-002
  5.4931641e-003  1.5258789e-004 -1.2207031e-002
  9.6130371e-003 -9.9182129e-003 -6.8664551e-003
  1.0375977e-002 -2.8991699e-003 -3.2043457e-003
  7.9345703e-003 -2.1362305e-003  1.2969971e-002
  5.6457520e-003 -1.0986328e-002  1.0681152e-002
  1.6784668e-003 -1.7547607e-002 -4.5776367e-003
  1.9836426e-003 -2.1820068e-002 -9.4604492e-003
 -4.7302246e-003 -1.8005371e-002 -1.0681152e-003
  9.9182129e-003 -6.2561035e-003  3.0517578e-003
  2.7465820e-002  8.0871582e-003  7.6293945e-004
  2.8228760e-002  1.6632080e-002  3.5095215e-003
  1.2054443e-002  2.1362305e-003  5.1879883e-003
 -7.6293945e-004 -1.0833740e-002  0.0000000e+000
 -1.4343262e-002 -1.5106201e-002 -6.1035156e-003
 -1.3122559e-002 -1.2664795e-002 -1.1596680e-002
  3.6621094e-003 -9.6130371e-003 -9.0026855e-003
  1.3885498e-002 -6.5612793e-003 -4.5776367e-003
 -1.5258789e-003 -5.3405762e-003  7.6293945e-004
 -1.9531250e-002 -5.9509277e-003  0.0000000e+000
 -2.2430420e-002 -5.7983398e-003 -4.5776367e-003
 -8.0871582e-003 -2.1362305e-003  1.9836426e-003
 -5.7983398e-003  3.3569336e-003  9.7656250e-003
 -6.8664551e-003  1.0070801e-002  8.3923340e-003
 -9.1552734e-003  9.1552734e-003  1.5258789e-004
 -7.6293945e-003 -1.6784668e-003 -8.3923340e-003
 -5.3405762e-003 -5.9509277e-003 -1.6937256e-002
 -7.1716309e-003 -7.4768066e-003 -7.9345703e-003
 -7.7819824e-003 -6.5612793e-003  2.7465820e-003
 -8.2397461e-003 -2.4414063e-003  3.9672852e-003
 -7.7819824e-003  3.5095215e-003  0.0000000e+000
 -6.4086914e-003  8.5449219e-003 -5.1879883e-003
 -4.5776367e-003  2.2888184e-003 -1.2817383e-002
 -3.3569336e-003 -1.2969971e-002 -1.1291504e-002
 -6.2561035e-003 -2.1972656e-002 -1.5258789e-004
 -5.7983398e-003 -5.4931641e-003  1.5258789e-003
  1.3732910e-003  8.0871582e-003 -7.6293945e-004
  7.1716309e-003  3.0517578e-004 -5.1879883e-003
  7.1716309e-003 -9.0026855e-003 -7.3242188e-003
  1.3732910e-003 -8.0871582e-003 -9.0026855e-003
 -3.9672852e-003  7.6293945e-003  1.1291504e-002
 -9.0026855e-003  4.8828125e-003  1.9378662e-002
 -1.0681152e-002 -4.2724609e-003  1.3427734e-002
 -1.0070801e-002 -1.5869141e-002  2.7465820e-003
 -7.1716309e-003 -1.9226074e-002 -1.6784668e-002
 -3.6621094e-003 -1.3427734e-002 -2.1972656e-002
 -3.6621094e-003 -9.1552734e-003 -2.0294189e-002
 -5.7983398e-003 -7.9345703e-003 -1.4038086e-002
 -4.7302246e-003 -8.3923340e-003 -1.8615723e-002
 -3.8146973e-003 -2.5939941e-003 -1.9073486e-002
 -2.4414063e-003  1.8310547e-003  7.3242188e-003
 -2.2888184e-003 -1.6784668e-003  2.9602051e-002
 -4.8828125e-003  1.4495850e-002  2.0141602e-002
 -8.0871582e-003  1.5258789e-002 -4.2724609e-003
 -6.4086914e-003 -9.1552734e-004 -1.8768311e-002
 -6.1035156e-004 -1.2664795e-002 -1.8920898e-002
  5.9509277e-003 -1.2664795e-002 -1.6174316e-002
  2.8991699e-003  1.2512207e-002 -1.5258789e-004
 -5.1879883e-003  2.4414063e-002  1.3275146e-002
 -9.7656250e-003 -3.3569336e-003  1.4953613e-002
 -9.0026855e-003 -2.6092529e-002  4.4250488e-003
 -1.5716553e-002 -3.0670166e-002 -7.3242188e-003
 -1.4038086e-002 -2.0751953e-002 -7.0190430e-003
  1.5258789e-003 -1.1596680e-002 -7.7819824e-003
  2.6855469e-002 -6.5612793e-003 -8.3923340e-003
  2.8839111e-002 -3.3569336e-003 -9.3078613e-003
  3.0517578e-004 -1.6784668e-003 -1.7852783e-002
 -2.1667480e-002  1.5258789e-003 -3.5095215e-003
 -1.8615723e-002  2.1362305e-003  1.4648438e-002
 -7.3242188e-003  3.0517578e-003  1.3122559e-002
  2.5939941e-003  4.5776367e-004  5.7983398e-003
  5.1879883e-003  3.0517578e-004 -4.7302246e-003
 -2.1362305e-003  5.0354004e-003 -9.6130371e-003
 -1.2664795e-002  4.5776367e-003 -1.8310547e-002
 -1.0528564e-002 -4.2724609e-003 -2.4108887e-002
 -3.2043457e-003  8.0871582e-003 -1.5106201e-002
  4.2724609e-003  4.1198730e-002 -9.7656250e-003
  8.6975098e-003  2.5787354e-002 -7.6293945e-003
  8.6975098e-003 -8.0871582e-003 -6.4086914e-003
  2.5939941e-003 -3.7078857e-002 -7.4768066e-003
 -7.7819824e-003 -3.6010742e-002 -5.7983398e-003
 -2.5787354e-002 -2.6092529e-002 -4.5776367e-004
 -4.1351318e-002  5.1879883e-003  3.8146973e-003
 -3.4484863e-002  4.1351318e-002  9.1552734e-003
 -1.3122559e-002  2.7770996e-002  1.1291504e-002
  1.8005371e-002 -1.7852783e-002  6.2561035e-003
  3.8604736e-002 -4.1656494e-002  9.1552734e-004
  2.6397705e-002 -4.1503906e-002 -4.5776367e-004
 -6.5612793e-003 -1.8463135e-002 -3.0517578e-004
 -2.8991699e-002  4.2266846e-002  1.9836426e-003
 -2.7160645e-002  2.7465820e-002  5.0354004e-003
 -1.3580322e-002 -1.3580322e-002  6.4086914e-003
 -3.3569336e-003 -1.6479492e-002  4.4250488e-003
  1.3732910e-003 -3.3569336e-003 -4.5776367e-004
  6.4086914e-003 -6.5612793e-003 -2.4414063e-003
  9.6130371e-003 -1.3732910e-002 -6.4086914e-003
  1.0528564e-002 -2.4566650e-002 -7.0190430e-003
  5.1879883e-003 -2.1057129e-002 -7.7819824e-003
 -4.5776367e-003  1.1444092e-002 -9.9182129e-003
 -1.1596680e-002  1.7700195e-002 -7.9345703e-003
 -1.5716553e-002 -5.7983398e-003 -1.1596680e-002
 -1.4343262e-002 -3.7536621e-002 -1.1901855e-002
 -9.6130371e-003 -4.4403076e-002 -1.4343262e-002
 -4.2724609e-003 -2.7923584e-002 -1.5258789e-002
  6.1035156e-004 -9.6130371e-003 -1.5869141e-002
  3.0517578e-003  2.2888184e-003 -1.3885498e-002
 -1.9836426e-003  2.0294189e-002  7.6293945e-004
 -6.5612793e-003  2.6092529e-002  2.4719238e-002
 -1.0833740e-002  2.5024414e-002  5.1574707e-002
 -9.3078613e-003  5.0354004e-003  5.8135986e-002
 -7.6293945e-003 -1.8615723e-002  2.0294189e-002
 -8.8500977e-003  0.0000000e+000 -3.0822754e-002
 -8.3923340e-003  3.8452148e-002 -5.4016113e-002
 -5.3405762e-003  4.9438477e-002 -4.5623779e-002
 -1.0223389e-002  2.9296875e-002 -2.1820068e-002
 -2.3345947e-002  1.6479492e-002 -4.1198730e-003
 -9.1552734e-004 -1.1444092e-002 -6.4086914e-003
  4.0435791e-002  5.9509277e-003 -8.8500977e-003
  5.3405762e-002 -9.9182129e-003 -1.0528564e-002
  1.4038086e-002 -1.3732910e-002 -6.7138672e-003
 -2.1972656e-002  3.3569336e-003 -3.6621094e-003
 -2.8839111e-002  8.8500977e-003 -1.6632080e-002
 -1.7242432e-002 -9.6130371e-003 -4.4860840e-002
 -8.3923340e-003 -3.3569336e-002 -4.9438477e-002
 -9.9182129e-003 -4.6081543e-002  2.7465820e-003
 -8.6975098e-003 -3.6468506e-002  5.6152344e-002
 -7.7819824e-003 -7.7819824e-003  6.0119629e-002
 -5.3405762e-003  2.8991699e-003  4.2419434e-002
 -9.1552734e-004  4.8828125e-003  2.7313232e-002
 -1.5258789e-004 -1.0833740e-002  2.7465820e-003
 -4.5776367e-004 -1.9226074e-002 -2.3193359e-002
 -8.2397461e-003 -1.4801025e-002 -4.0740967e-002
 -8.6975098e-003 -7.4768066e-003 -3.4332275e-002
 -2.2888184e-003 -1.8310547e-003 -2.1972656e-002
  4.1198730e-003  7.6293945e-004 -2.2125244e-002
 -3.2043457e-003 -1.5258789e-003 -2.6397705e-002
 -9.7656250e-003  7.6293945e-003 -3.4179688e-002
 -3.8146973e-003  1.7242432e-002 -3.0670166e-002
  7.7819824e-003  2.3651123e-002 -1.2817383e-002
  4.5776367e-004  1.0681152e-002  1.0528564e-002
 -2.1057129e-002 -1.2207031e-003  2.9602051e-002
 -4.1351318e-002 -1.3275146e-002  3.8452148e-002
 -4.3640137e-002 -1.8005371e-002  3.4942627e-002
 -1.5258789e-002 -1.5411377e-002  7.6293945e-003
  3.3569336e-002 -9.4604492e-003 -2.7923584e-002
  7.0190430e-002 -5.7983398e-003 -3.4332275e-002
  6.4239502e-002 -3.9672852e-003 -2.8533936e-002
  3.4179688e-002 -3.2043457e-003 -3.1433105e-002
 -1.6784668e-003 -1.2512207e-002 -3.7536621e-002
 -2.2430420e-002 -1.4801025e-002 -2.7160645e-002
 -2.2430420e-002 -5.0354004e-003  6.5612793e-003
 -1.8005371e-002  3.3264160e-002  3.3264160e-002
 -2.5177002e-002  3.8757324e-002  3.4484863e-002
 -3.0975342e-002  1.0070801e-002  2.2277832e-002
 -3.4179688e-002 -1.8310547e-002 -1.5258789e-004
 -3.4027100e-002 -2.9754639e-002 -1.8768311e-002
 -3.0517578e-002 -1.7089844e-002 -1.0681152e-003
 -1.9073486e-002  6.4086914e-003  3.9367676e-002
 -1.6784668e-003  8.8500977e-003  6.1340332e-002
  4.1198730e-003  9.0026855e-003  2.5177002e-002
  8.8500977e-003  1.0681152e-003 -4.3029785e-002
  2.8991699e-002  1.2817383e-002 -7.4310303e-002
  4.1656494e-002  1.3275146e-002 -5.9661865e-002
  1.3732910e-002  6.1035156e-004 -1.8310547e-002
 -2.3956299e-002 -1.9989014e-002  1.0528564e-002
 -2.9754639e-002 -3.8299561e-002  6.2561035e-003
 -9.7656250e-003 -4.3945313e-002 -9.4604492e-003
  6.1035156e-003 -3.4942627e-002 -2.1362305e-002
  5.6457520e-003 -1.6326904e-002 -2.5482178e-002
  2.8991699e-003 -1.0681152e-003 -3.1585693e-002
  4.4250488e-003  3.2043457e-003 -4.2114258e-002
 -3.3569336e-003 -4.5776367e-003 -2.8991699e-002
 -2.0599365e-002 -8.8500977e-003  2.1057129e-002
 -3.0212402e-002 -9.4604492e-003  6.9580078e-002
 -2.1209717e-002 -5.1879883e-003  6.6833496e-002
 -1.1138916e-002 -1.5258789e-003  1.0223389e-002
 -8.3923340e-003  1.9836426e-003 -3.3874512e-002
 -3.0517578e-004  3.0517578e-003 -2.1209717e-002
  1.2817383e-002  3.0517578e-003  1.3427734e-002
  6.1035156e-003  4.4250488e-003  2.7618408e-002
 -9.7656250e-003  1.2359619e-002  1.1901855e-002
  1.6784668e-003  1.5411377e-002 -1.6937256e-002
  2.9449463e-002  8.8500977e-003 -2.6855469e-002
  2.9449463e-002  2.7465820e-003 -1.0070801e-002
  4.8828125e-003  3.2043457e-003  3.6621094e-003
 -7.0190430e-003 -3.3569336e-003 -2.7465820e-003
 -6.7138672e-003 -1.1596680e-002 -2.0904541e-002
 -1.2969971e-002 -1.6784668e-002 -1.8768311e-002
 -1.9683838e-002 -1.5258789e-002 -1.5258789e-004
 -1.8157959e-002  1.5258789e-003  1.1291504e-002
 -1.3732910e-002  1.8157959e-002  1.4801025e-002
 -1.0833740e-002  2.6550293e-002  2.4261475e-002
 -9.9182129e-003  1.3122559e-002  1.2969971e-002
 -9.1552734e-003 -8.8500977e-003 -2.1514893e-002
 -5.0354004e-003 -2.3040771e-002 -4.8370361e-002
 -5.0354004e-003 -2.8381348e-002 -4.0893555e-002
 -1.9836426e-003 -2.0751953e-002 -5.9509277e-003
  2.8991699e-003 -1.2207031e-003  3.9825439e-002
  2.1362305e-003  1.5869141e-002  8.0108643e-002
 -6.8664551e-003  1.7242432e-002  6.3018799e-002
 -5.6457520e-003  3.0517578e-004 -7.3242188e-003
 -2.4414063e-003 -1.5563965e-002 -6.8511963e-002
 -9.3078613e-003 -2.9144287e-002 -6.5155029e-002
 -2.0599365e-002 -2.7618408e-002 -2.3803711e-002
 -1.6937256e-002 -1.8005371e-002  6.4086914e-003
 -1.9836426e-003 -4.8828125e-003  5.0354004e-003
  1.9836426e-003  5.6457520e-003 -2.0904541e-002
 -6.4086914e-003  1.4190674e-002 -3.5400391e-002
 -9.3078613e-003  2.0446777e-002 -2.5329590e-002
  8.0871582e-003  1.0833740e-002  1.2207031e-003
  2.9296875e-002 -9.1552734e-003  2.7923584e-002
  2.3803711e-002 -2.2125244e-002  4.0435791e-002
 -3.6621094e-003 -3.1280518e-002  2.6702881e-002
 -1.7700195e-002 -3.7841797e-002  1.0528564e-002
 -1.8768311e-002 -4.1656494e-002  1.9836426e-003
 -1.2054443e-002 -4.0283203e-002 -1.8615723e-002
  1.8157959e-002 -3.2501221e-002 -3.1280518e-002
  5.1879883e-002  1.5258789e-004 -2.1667480e-002
  3.5552979e-002  6.1187744e-002  1.4648438e-002
 -1.5716553e-002  1.1672974e-001  2.9144287e-002
 -4.3029785e-002  1.1596680e-001  1.0223389e-002
 -3.8757324e-002  5.4168701e-002 -2.9754639e-002
 -2.4566650e-002 -1.6479492e-002 -5.0659180e-002
 -1.6021729e-002 -4.7454834e-002 -2.8839111e-002
 -8.8500977e-003 -4.5013428e-002  5.9509277e-003
 -7.1716309e-003 -3.1433105e-002  2.5177002e-002
 -2.0294189e-002 -2.5329590e-002  2.2735596e-002
 -3.1433105e-002 -2.4871826e-002  1.1138916e-002
 -1.3885498e-002 -2.5024414e-002 -6.8664551e-003
  1.9836426e-002 -2.6702881e-002 -2.6702881e-002
  2.6397705e-002 -3.1280518e-002 -3.7536621e-002
  6.4086914e-003 -3.7231445e-002 -3.7536621e-002
  1.0681152e-003 -3.7078857e-002 -2.3193359e-002
  2.6092529e-002 -3.2653809e-002  3.8146973e-003
  4.9438477e-002  1.1138916e-002  3.0975342e-002
  2.4719238e-002  6.0577393e-002  3.7384033e-002
 -2.0904541e-002  4.8370361e-002  1.2969971e-002
 -4.5166016e-002 -8.3923340e-003 -2.5787354e-002
 -4.3945313e-002 -5.1574707e-002 -3.8604736e-002
 -2.8991699e-002 -3.4484863e-002 -2.8991699e-002
 -1.8157959e-002  2.8381348e-002 -1.6479492e-002
 -1.9531250e-002  8.9111328e-002 -2.4108887e-002
 -3.3569336e-003  7.9498291e-002 -2.1514893e-002
  3.0670166e-002  1.5563965e-002  1.0528564e-002
  2.4108887e-002 -4.1961670e-002  4.9133301e-002
 -4.2724609e-003 -3.6621094e-002  5.3558350e-002
 -2.6702881e-002  6.1035156e-003  5.6457520e-003
 -3.7841797e-002  2.8381348e-002 -4.3640137e-002
 -2.7923584e-002 -1.6784668e-003 -3.3111572e-002
  1.0833740e-002 -5.4931641e-002  2.0751953e-002
  4.7302246e-002 -8.2702637e-002  5.2795410e-002
  1.7547607e-002 -6.6223145e-002  3.6926270e-002
 -1.8157959e-002 -5.9509277e-003 -4.5776367e-004
 -1.8920898e-002  4.2724609e-002 -2.9449463e-002
 -4.5776367e-003  5.7067871e-002 -5.2795410e-002
  7.6293945e-004  3.2196045e-002 -5.1574707e-002
  6.1035156e-004  3.2043457e-003 -1.9531250e-002
 -6.8664551e-003 -1.5716553e-002  5.6457520e-003
 -1.4801025e-002 -2.4566650e-002  2.9296875e-002
 -5.9509277e-003 -2.0904541e-002  3.3874512e-002
  1.5258789e-002 -1.1901855e-002  2.0294189e-002
  2.3040771e-002 -1.0223389e-002  6.4086914e-003
  5.9509277e-003 -1.6326904e-002  1.6784668e-003
 -1.4953613e-002 -7.6293945e-003 -1.5258789e-003
 -2.2888184e-002  1.6174316e-002 -2.0446777e-002
 -2.8381348e-002  2.4261475e-002 -3.8757324e-002
 -3.4332275e-002  1.6174316e-002 -4.2877197e-002
 -2.0904541e-002  8.6975098e-003 -3.0822754e-002
  6.5612793e-003 -1.8310547e-003 -1.9989014e-002
  1.6937256e-002 -1.6021729e-002 -2.4871826e-002
 -1.5411377e-002 -3.0059814e-002 -3.0822754e-002
 -1.6326904e-002 -3.2958984e-002 -1.9226074e-002
  2.2277832e-002 -2.9449463e-002  1.0833740e-002
  5.9356689e-002 -1.1901855e-002  2.8991699e-002
  4.2266846e-002 -1.6784668e-003  1.7852783e-002
  5.7983398e-003 -2.8991699e-003 -7.4768066e-003
 -5.7983398e-003 -7.4768066e-003 -2.9754639e-002
  9.1552734e-004  4.1198730e-003 -3.3721924e-002
 -3.0517578e-003  2.6550293e-002 -3.4790039e-002
 -1.4343262e-002  2.7160645e-002 -2.5177002e-002
 -2.9754639e-002 -3.5095215e-003  1.8768311e-002
 -3.8909912e-002 -9.0026855e-003  6.2561035e-002
 -4.3640137e-002  1.6479492e-002  5.9204102e-002
 -1.5258789e-002  3.7689209e-002  9.9182129e-003
  1.5411377e-002  1.2969971e-002 -2.4108887e-002
  2.2888184e-003 -4.1198730e-002 -2.3651123e-002
 -4.8522949e-002 -6.9732666e-002 -1.1749268e-002
 -3.9062500e-002 -7.7056885e-002 -2.1362305e-003
  4.9133301e-002 -3.2653809e-002  2.5939941e-003
  8.4533691e-002  4.4708252e-002 -1.8310547e-003
 -9.0026855e-003  8.0871582e-002 -1.0681152e-002
 -5.9967041e-002  4.9133301e-002 -4.5776367e-003
 -1.1291504e-002  1.3580322e-002  1.0375977e-002
  2.4566650e-002 -1.6021729e-002  1.4495850e-002
  3.0517578e-004 -4.3792725e-002  1.0070801e-002
 -3.2806396e-002 -5.2337646e-002  8.3923340e-003
 -4.1351318e-002 -4.3792725e-002  6.8664551e-003
 -1.8920898e-002 -1.8615723e-002 -1.0681152e-003
  1.5716553e-002  1.5106201e-002 -3.9672852e-003
  2.7618408e-002  4.6386719e-002 -9.7656250e-003
  8.8500977e-003  3.7384033e-002 -2.6855469e-002
 -7.1716309e-003  6.1035156e-003 -3.4332275e-002
 -1.2207031e-002 -1.7852783e-002 -3.2501221e-002
 -4.1198730e-003 -9.9182129e-003 -3.0975342e-002
 -5.4931641e-003 -1.3580322e-002 -2.2583008e-002
 -4.4250488e-003 -2.9754639e-002  9.7656250e-003
  1.0070801e-002 -2.4566650e-002  6.6528320e-002
  2.2735596e-002  2.4414063e-003  7.7819824e-002
  1.8768311e-002  2.7160645e-002  1.9836426e-003
  1.9836426e-003  2.1514893e-002 -7.8887939e-002
 -2.4261475e-002 -1.8615723e-002 -7.2021484e-002
 -2.3193359e-002 -3.6773682e-002 -2.4108887e-002
  2.2888184e-003 -1.0070801e-002  3.8146973e-003
 -3.6621094e-003  3.1280518e-002  2.8839111e-002
 -2.9296875e-002  2.7770996e-002  5.8593750e-002
 -3.5095215e-002 -1.4343262e-002  6.1645508e-002
 -2.7465820e-002 -3.1585693e-002  5.4321289e-002
 -9.4604492e-003 -2.0599365e-002  3.5705566e-002
  2.1057129e-002 -9.6130371e-003 -1.0833740e-002
  4.7454834e-002 -1.5258789e-004 -3.7231445e-002
  4.0435791e-002  8.5449219e-003 -3.2806396e-002
 -5.9509277e-003  6.5612793e-003 -3.0059814e-002
 -2.8228760e-002 -9.6130371e-003 -3.9520264e-002
 -2.5177002e-002 -2.1667480e-002 -4.3945313e-002
 -9.9182129e-003 -2.6397705e-002 -4.3029785e-002
 -5.0354004e-003 -2.0751953e-002 -3.5247803e-002
 -8.3923340e-003 -1.2969971e-002 -1.3122559e-002
 -1.0375977e-002 -5.0354004e-003  3.2806396e-002
 -2.5939941e-003 -9.1552734e-004  7.3242188e-002
  4.4250488e-003 -3.3569336e-003  5.3558350e-002
 -3.5095215e-003 -7.1716309e-003 -4.1198730e-003
 -1.9531250e-002  7.7819824e-003 -2.0751953e-002
 -2.3803711e-002  1.6174316e-002  3.2043457e-003
 -1.3275146e-002  2.7465820e-003  6.1035156e-004
 -3.5095215e-003  4.5776367e-004 -4.2419434e-002
  1.4495850e-002  6.4086914e-003 -5.5694580e-002
  2.8533936e-002 -1.8310547e-003 -4.5623779e-002
  6.7138672e-003 -4.5776367e-004 -3.4027100e-002
 -4.1198730e-003  2.8228760e-002 -1.4343262e-002
  9.9182129e-003  4.3640137e-002  6.8664551e-003
  1.7852783e-002  3.3569336e-003  1.5411377e-002
 -1.8310547e-003 -4.0588379e-002  6.2561035e-003
 -2.7313232e-002 -1.3122559e-002 -5.0354004e-003
 -2.3651123e-002  5.4473877e-002 -1.2359619e-002
 -4.5776367e-003  7.2174072e-002 -6.5612793e-003
  4.5776367e-004  2.3498535e-002  1.3732910e-002
 -8.8500977e-003 -3.1890869e-002  2.7923584e-002
 -1.1901855e-002 -5.2185059e-002  2.0446777e-002
 -9.1552734e-003 -4.2572021e-002 -9.1552734e-004
 -6.2561035e-003 -2.9144287e-002 -1.4953613e-002
 -5.0354004e-003 -3.8146973e-002 -1.1138916e-002
 -5.0354004e-003 -4.4860840e-002 -5.1879883e-003
 -4.5776367e-003 -4.7149658e-002 -6.5612793e-003
 -4.2724609e-003 -5.4473877e-002 -8.8500977e-003
 -3.0517578e-003 -3.0059814e-002 -1.9836426e-003
 -3.9672852e-003  2.6550293e-002  1.4648438e-002
 -5.0354004e-003  5.0354004e-002  1.9226074e-002
 -5.9509277e-003  1.3732910e-003  7.9345703e-003
 -5.9509277e-003 -3.2348633e-002 -1.2664795e-002
 -2.2888184e-003  1.0681152e-002 -1.9989014e-002
  8.8500977e-003  5.5999756e-002 -1.3122559e-002
  2.0141602e-002  3.2501221e-002 -9.0026855e-003
  1.1749268e-002 -7.7819824e-003 -5.1879883e-003
 -1.5106201e-002 -2.8991699e-002 -2.8991699e-003
 -2.3651123e-002 -1.9226074e-002 -2.8991699e-003
 -1.0528564e-002 -7.7819824e-003 -1.6784668e-003
 -5.1879883e-003 -1.1596680e-002 -1.5258789e-003
 -3.6621094e-003 -1.7852783e-002 -1.5258789e-004
 -3.9672852e-003 -4.5776367e-004  0.0000000e+000
 -4.5776367e-003  1.5563965e-002 -9.1552734e-004
 -4.1198730e-003  1.4495850e-002 -3.9672852e-003
 -4.1198730e-003 -3.5095215e-003 -4.5776367e-003
 -3.3569336e-003  1.6021729e-002 -5.4931641e-003
 -3.3569336e-003  4.4708252e-002 -4.1198730e-003
 -3.3569336e-003  4.1656494e-002 -3.8146973e-003
 -3.5095215e-003 -2.0446777e-002 -2.1362305e-003
 -3.2043457e-003 -6.3781738e-002 -5.9509277e-003
 -2.2888184e-003 -4.0740967e-002 -1.1596680e-002
 -2.4414063e-003  6.2561035e-003 -1.2969971e-002
 -2.5939941e-003  3.0364990e-002 -9.7656250e-003
 -3.3569336e-003  2.1514893e-002 -6.8664551e-003
 -3.3569336e-003 -9.6130371e-003 -5.9509277e-003
 -3.3569336e-003 -3.4637451e-002 -4.5776367e-003
 -3.9672852e-003 -2.6092529e-002 -3.8146973e-003
 -3.0517578e-003 -1.6632080e-002 -3.2043457e-003
 -1.6784668e-003 -1.5106201e-002 -3.0517578e-003
 -2.2888184e-003 -1.2969971e-002 -3.5095215e-003
 -3.5095215e-003 -1.1444092e-002 -2.1362305e-003
 -3.3569336e-003 -1.5258789e-003 -1.0681152e-003
 -4.2724609e-003  6.5612793e-003 -3.0517578e-004
 -4.4250488e-003  1.6479492e-002  3.0517578e-004
 -3.5095215e-003  2.0599365e-002 -4.5776367e-004
 -4.2724609e-003  1.7242432e-002 -9.1552734e-004
 -3.6621094e-003  4.7302246e-003 -6.1035156e-004
 -5.0354004e-003 -1.3122559e-002 -1.5258789e-003
 -5.0354004e-003 -1.9073486e-002 -1.8310547e-003
 -3.6621094e-003 -1.5716553e-002 -2.5939941e-003
 -3.0517578e-003 -1.9073486e-002 -3.8146973e-003
 -3.9672852e-003 -1.6174316e-002 -4.1198730e-003
 -4.7302246e-003 -1.0681152e-002 -4.1198730e-003
 -4.2724609e-003 -4.2724609e-003 -4.1198730e-003
 -4.1198730e-003 -2.8991699e-003 -4.1198730e-003
 -4.4250488e-003 -1.8310547e-003 -2.8991699e-003
 -4.1198730e-003 -9.1552734e-004 -2.2888184e-003
 -4.1198730e-003 -1.5258789e-003 -3.8146973e-003
 -3.8146973e-003  3.3569336e-003 -4.5776367e-003
 -4.5776367e-003 -1.5258789e-004 -4.1198730e-003
 -4.7302246e-003 -2.4414063e-003 -3.6621094e-003
 -3.8146973e-003 -5.6457520e-003 -2.2888184e-003
 -4.1198730e-003 -4.2724609e-003 -2.4414063e-003
 -3.6621094e-003 -3.9672852e-003 -3.5095215e-003
 -4.8828125e-003 -2.8991699e-003 -4.5776367e-003
 -5.0354004e-003 -2.1362305e-003 -5.0354004e-003
 -4.7302246e-003 -1.6784668e-003 -5.7983398e-003
 -2.5939941e-003 -3.2043457e-003 -5.9509277e-003
 -3.3569336e-003 -2.7465820e-003 -5.1879883e-003
 -4.2724609e-003 -4.5776367e-003 -2.7465820e-003
 -4.1198730e-003 -4.2724609e-003 -2.7465820e-003
 -4.4250488e-003 -4.5776367e-003 -4.8828125e-003
 -3.6621094e-003 -5.0354004e-003 -7.1716309e-003
 -3.6621094e-003 -5.3405762e-003 -7.4768066e-003
 -4.2724609e-003 -3.5095215e-003 -5.0354004e-003
 -3.2043457e-003 -2.8991699e-003 -3.5095215e-003
 -3.5095215e-003 -1.6784668e-003 -4.2724609e-003
 -2.7465820e-003  3.0517578e-004 -1.6784668e-003
 -2.5939941e-003  2.5939941e-003 -1.0681152e-003
 -2.7465820e-003 -7.6293945e-004 -2.2888184e-003
 -3.3569336e-003 -6.5612793e-003 -2.8991699e-003
 -3.8146973e-003 -9.3078613e-003 -3.0517578e-003
 -4.5776367e-003 -7.4768066e-003 -3.6621094e-003
 -4.2724609e-003 -5.3405762e-003 -6.4086914e-003
 -3.5095215e-003 -4.5776367e-003 -6.4086914e-003
 -2.8991699e-003 -3.8146973e-003 -5.3405762e-003
 -3.8146973e-003 -4.1198730e-003 -3.3569336e-003
 -4.4250488e-003 -3.9672852e-003 -3.9672852e-003
 -4.2724609e-003 -4.2724609e-003 -5.7983398e-003
 -4.7302246e-003 -3.3569336e-003 -6.1035156e-003
 -5.0354004e-003 -3.3569336e-003 -5.0354004e-003
 -4.7302246e-003 -4.1198730e-003 -5.6457520e-003
 -4.1198730e-003 -3.5095215e-003 -6.5612793e-003
 -3.3569336e-003 -3.5095215e-003 -5.7983398e-003
 -2.7465820e-003 -2.8991699e-003 -3.9672852e-003
 -4.2724609e-003 -3.5095215e-003 -2.8991699e-003
 -4.4250488e-003 -3.8146973e-003 -3.2043457e-003
 -3.9672852e-003 -3.3569336e-003 -3.3569336e-003
 -3.5095215e-003 -2.8991699e-003 -1.9836426e-003
 -3.5095215e-003 -2.4414063e-003 -1.9836426e-003
 -3.5095215e-003 -3.0517578e-003 -3.2043457e-003
 -2.8991699e-003 -4.5776367e-003 -3.2043457e-003
 -2.8991699e-003 -2.2888184e-003 -3.5095215e-003
 -3.2043457e-003 -3.8146973e-003 -4.4250488e-003
 -3.0517578e-003 -4.1198730e-003 -4.2724609e-003
 -3.5095215e-003 -4.5776367e-003 -4.1198730e-003
 -3.6621094e-003 -5.9509277e-003 -3.9672852e-003
 -4.1198730e-003 -5.1879883e-003 -4.8828125e-003
 -4.1198730e-003 -5.1879883e-003 -5.3405762e-003
 -4.5776367e-003 -5.7983398e-003 -6.5612793e-003
 -4.8828125e-003 -5.0354004e-003 -5.6457520e-003
 -4.4250488e-003 -4.8828125e-003 -4.8828125e-003
 -4.4250488e-003 -3.0517578e-003 -5.3405762e-003
 -4.4250488e-003 -3.2043457e-003 -7.1716309e-003
 -3.3569336e-003 -2.2888184e-003 -6.2561035e-003
 -3.6621094e-003 -3.2043457e-003 -4.7302246e-003
 -4.1198730e-003 -3.9672852e-003 -3.3569336e-003
 -3.0517578e-003 -3.6621094e-003 -3.8146973e-003
 -3.6621094e-003 -3.3569336e-003 -4.1198730e-003
 -3.2043457e-003 -3.3569336e-003 -4.7302246e-003
 -4.1198730e-003 -3.3569336e-003 -4.1198730e-003
 -4.1198730e-003 -2.2888184e-003 -3.3569336e-003
 -3.8146973e-003 -1.8310547e-003 -3.3569336e-003
 -4.4250488e-003 -3.9672852e-003 -3.9672852e-003
 -3.6621094e-003 -3.2043457e-003 -3.3569336e-003
 -3.9672852e-003 -2.8991699e-003 -2.7465820e-003
 -4.2724609e-003 -3.3569336e-003 -3.3569336e-003
 -4.8828125e-003 -3.9672852e-003 -2.2888184e-003
 -3.8146973e-003 -3.9672852e-003 -2.4414063e-003
 -4.1198730e-003 -4.8828125e-003 -1.6784668e-003
 -3.8146973e-003 -5.1879883e-003 -2.2888184e-003
 -3.8146973e-003 -5.3405762e-003 -2.8991699e-003
 -4.2724609e-003 -4.5776367e-003 -3.0517578e-003
 -3.2043457e-003 -3.8146973e-003 -2.7465820e-003
 -2.8991699e-003 -3.2043457e-003 -2.1362305e-003
 -2.2888184e-003 -3.6621094e-003 -2.7465820e-003
 -3.5095215e-003 -3.0517578e-003 -2.2888184e-003
 -4.1198730e-003 -2.8991699e-003 -2.8991699e-003
 -4.2724609e-003 -4.1198730e-003 -3.2043457e-003
 -3.8146973e-003 -3.5095215e-003 -3.3569336e-003
 -3.2043457e-003 -4.1198730e-003 -3.5095215e-003
 -3.2043457e-003 -2.4414063e-003 -4.1198730e-003
 -3.5095215e-003 -3.6621094e-003 -3.0517578e-003
 -3.9672852e-003 -6.5612793e-003 -3.2043457e-003
 -3.8146973e-003 -2.8991699e-003 -3.6621094e-003
 -4.2724609e-003 -1.9836426e-003 -3.3569336e-003
 -4.1198730e-003 -1.3732910e-003 -2.7465820e-003
 -4.2724609e-003 -1.6784668e-003 -3.2043457e-003
 -4.7302246e-003 -3.8146973e-003 -3.8146973e-003
 -4.4250488e-003 -1.6784668e-003 -3.9672852e-003
 -4.4250488e-003 -1.6784668e-003 -3.5095215e-003
 -4.2724609e-003 -3.2043457e-003 -3.3569336e-003
 -4.8828125e-003 -3.2043457e-003 -3.6621094e-003
 -4.1198730e-003 -2.2888184e-003 -3.9672852e-003
 -3.5095215e-003 -3.2043457e-003 -5.0354004e-003
 -3.8146973e-003 -3.6621094e-003 -5.0354004e-003
 -3.5095215e-003 -3.5095215e-003 -3.6621094e-003
 -3.9672852e-003 -3.9672852e-003 -3.0517578e-003
 -3.6621094e-003 -1.2207031e-003 -2.2888184e-003
 -4.5776367e-003 -3.5095215e-003 -3.0517578e-003
 -3.2043457e-003 -3.6621094e-003 -4.2724609e-003
 -3.2043457e-003 -4.1198730e-003 -5.7983398e-003
 -3.5095215e-003 -3.3569336e-003 -5.1879883e-003
 -4.1198730e-003 -2.2888184e-003 -4.1198730e-003
 -4.5776367e-003 -3.3569336e-003 -4.1198730e-003
 -4.5776367e-003 -5.0354004e-003 -3.3569336e-003
 -4.2724609e-003 -4.5776367e-003 -4.5776367e-003
 -5.0354004e-003 -4.8828125e-003 -3.8146973e-003
 -4.5776367e-003 -3.0517578e-003 -4.2724609e-003
 -4.1198730e-003 -3.5095215e-003 -4.2724609e-003
 -4.7302246e-003 -4.1198730e-003 -4.8828125e-003
 -5.1879883e-003 -3.3569336e-003 -5.6457520e-003
 -5.6457520e-003 -4.2724609e-003 -5.7983398e-003
 -5.3405762e-003 -3.0517578e-003 -4.5776367e-003
 -4.2724609e-003 -2.4414063e-003 -3.9672852e-003
 -3.9672852e-003 -3.6621094e-003 -4.1198730e-003
 -3.5095215e-003 -2.1362305e-003 -2.5939941e-003
 -3.5095215e-003 -4.1198730e-003 -2.1362305e-003
 -3.2043457e-003 -5.6457520e-003 -1.8310547e-003
 -3.5095215e-003 -3.6621094e-003 -2.2888184e-003
 -3.6621094e-003 -4.4250488e-003 -3.6621094e-003
 -3.5095215e-003 -3.0517578e-003 -3.0517578e-003
 -3.2043457e-003 -2.7465820e-003 -3.0517578e-003
 -3.5095215e-003 -2.1362305e-003 -2.5939941e-003
 -4.5776367e-003 -2.1362305e-003 -3.6621094e-003
 -4.4250488e-003 -3.9672852e-003 -4.2724609e-003
 -3.3569336e-003 -2.5939941e-003 -4.5776367e-003
 -4.1198730e-003 -3.5095215e-003 -5.4931641e-003
 -3.6621094e-003 -2.7465820e-003 -5.0354004e-003
 -3.6621094e-003 -3.0517578e-003 -5.3405762e-003
 -4.1198730e-003 -2.1362305e-003 -4.5776367e-003
 -4.2724609e-003 -3.5095215e-003 -3.9672852e-003
 -3.8146973e-003 -2.7465820e-003 -3.9672852e-003
 -4.1198730e-003 -2.8991699e-003 -5.1879883e-003
 -3.5095215e-003 -3.2043457e-003 -5.6457520e-003
 -3.2043457e-003 -3.2043457e-003 -6.5612793e-003
 -3.2043457e-003 -3.9672852e-003 -5.0354004e-003
 -3.5095215e-003 -4.1198730e-003 -5.1879883e-003
 -3.8146973e-003 -3.6621094e-003 -1.2207031e-003
 -3.6621094e-003 -2.8991699e-003 -1.5258789e-004
 -4.5776367e-003 -4.4250488e-003 -3.2043457e-003
 -3.3569336e-003 -4.5776367e-003 -1.8310547e-003
 -2.7465820e-003 -3.2043457e-003 -4.1198730e-003
 -2.8991699e-003 -4.5776367e-003 -2.8991699e-003
 -4.2724609e-003 -5.0354004e-003 -4.5776367e-004
 -4.1198730e-003 -4.8828125e-003 -1.3732910e-003
 -3.3569336e-003 -3.3569336e-003 -4.8828125e-003
 -3.6621094e-003 -3.3569336e-003 -7.0190430e-003
 -3.9672852e-003 -4.5776367e-003 -1.0223389e-002
 -3.6621094e-003 -4.5776367e-003 -8.3923340e-003
 -3.2043457e-003 -4.4250488e-003 -7.4768066e-003
